time(s),F1,F2,F3,F4,F5,F6,F7,F8,F9,F10,Temp,Humid
0.0,1999,775.125,1419.125,1726.375,1789.625,2453.75,233.375,1497.25,2078.625,1629.5,37.48,37.75
0.1,1999,775.125,1419.125,1726.75,1789.75,2453.875,233.375,1497.875,2079,1630.25,37.48,37.72
0.2,1999.125,775.125,1419.125,1727.375,1790,2454,233.25,1498.5,2079.375,1631,37.48,37.79
0.3,1999.25,775.125,1419.125,1727.875,1790.125,2454.125,233.375,1499.25,2079.75,1631.625,37.51,37.8
0.4,1999.375,775,1419.125,1728.375,1790.25,2454.125,233.375,1499.875,2080.125,1632.375,37.51,37.81
0.5,1999.5,775.125,1419.125,1728.875,1790.375,2454.25,233.375,1500.5,2080.5,1633,37.51,37.88
0.6,1999.625,775,1419.125,1729.375,1790.5,2454.25,233.5,1501.125,2080.875,1633.75,37.5,37.81
0.7,1999.625,775.125,1419.125,1729.875,1790.625,2454.375,233.375,1501.75,2081.125,1634.375,37.5,37.84
0.8,1999.75,775,1419.125,1730.375,1790.75,2454.375,233.375,1502.375,2081.5,1635,37.51,37.82
0.9,1999.875,775.125,1419.125,1730.875,1790.75,2454.375,233.5,1503,2081.875,1635.625,37.48,37.79
1.0,2000,775.125,1419.125,1731.375,1790.875,2454.5,233.5,1503.75,2082.125,1636.25,37.48,37.85
1.1,2000.125,775.125,1419.125,1731.875,1791,2454.5,233.375,1504.25,2082.5,1636.875,37.51,37.88
1.2,2000.25,775.125,1419.125,1732.375,1791,2454.5,233.625,1504.875,2082.75,1637.375,37.53,37.86
1.3,2000.25,775.125,1419.125,1732.875,1791.125,2454.625,233.5,1505.5,2083,1638,37.5,37.87
1.4,2000.375,775.125,1419.125,1733.25,1791.25,2454.625,233.5,1506.125,2083.375,1638.5,37.53,37.87
1.5,2000.5,775.125,1419.125,1733.875,1791.25,2454.625,233.5,1506.625,2083.625,1639.125,37.5,37.82
1.6,2000.625,775.125,1419.125,1734.25,1791.375,2454.625,233.375,1507.25,2083.875,1639.5,37.51,37.84
1.7,2000.75,775.125,1419.125,1734.75,1791.375,2454.625,233.5,1507.75,2084.25,1640,37.51,37.9
1.8,2000.75,775.125,1419.125,1735.125,1791.5,2454.625,233.5,1508.375,2084.375,1640.5,37.48,37.87
1.9,2000.875,775.125,1419.125,1735.625,1791.5,2454.625,233.5,1508.875,2084.625,1641,37.53,37.86
2.0,2001,775.125,1419.125,1736.125,1791.5,2454.625,233.5,1509.375,2085,1641.375,37.53,37.86
2.1,2001.125,775.125,1419.125,1736.5,1791.5,2454.625,233.5,1510,2085.125,1641.875,37.51,37.93
2.2,2001.25,775.125,1419.125,1736.875,1791.5,2454.625,233.375,1510.375,2085.375,1642.25,37.5,37.88
2.3,2001.375,775.125,1419.125,1737.25,1791.75,2454.625,233.375,1510.875,2085.625,1642.625,37.51,37.84
2.4,2001.375,775.125,1419.125,1737.75,1791.625,2454.625,233.375,1511.375,2085.875,1643,37.5,37.91
2.5,2001.5,775.125,1419.125,1738.125,1791.625,2454.5,233.375,1511.875,2086,1643.375,37.5,37.9
2.6,2001.625,775.125,1419.125,1738.5,1791.625,2454.5,233.375,1512.375,2086.25,1643.75,37.51,37.88
2.7,2001.625,775.125,1419.125,1738.875,1791.625,2454.5,233.375,1512.75,2086.5,1644.125,37.51,37.87
2.8,2001.75,775.125,1419.125,1739.25,1791.625,2454.5,233.375,1513.25,2086.625,1644.375,37.5,37.9
2.9,2001.875,775.125,1419.125,1739.625,1791.625,2454.5,233.375,1513.625,2086.875,1644.625,37.51,37.87
3.0,2002,775.125,1419.125,1740,1791.5,2454.5,233.375,1514,2087.125,1645,37.51,37.86
3.1,2002.125,775.125,1419.125,1740.375,1791.625,2454.375,233.375,1514.375,2087.25,1645.25,37.54,37.86
3.2,2002.125,775.25,1419.125,1740.625,1791.625,2454.5,233.375,1514.875,2087.375,1645.5,37.53,37.9
3.3,2002.375,775.25,1419.125,1741,1791.5,2454.375,233.375,1515.25,2087.5,1645.875,37.51,37.84
3.4,2002.5,775.25,1419.125,1741.375,1791.5,2454.375,233.375,1515.625,2087.75,1646,37.51,37.93
3.5,2002.5,775.25,1419.125,1741.625,1791.625,2454.25,233.375,1516,2087.875,1646.25,37.51,37.91
3.6,2002.625,775.25,1419.125,1742,1791.5,2454.375,233.375,1516.25,2088.125,1646.5,37.54,37.86
3.7,2002.625,775.25,1419.125,1742.25,1791.5,2454.25,233.375,1516.625,2088.25,1646.75,37.51,37.9
3.8,2002.75,775.375,1419.125,1742.5,1791.5,2454.125,233.375,1517,2088.375,1646.875,37.53,37.84
3.9,2003,775.25,1419.125,1742.875,1791.375,2454.125,233.375,1517.25,2088.5,1647.125,37.51,37.84
4.0,2003,775.25,1419.125,1743.125,1791.375,2454.125,233.375,1517.625,2088.625,1647.25,37.53,37.83
4.1,2003.125,775.375,1419.125,1743.375,1791.375,2454,233.375,1518,2088.75,1647.5,37.53,37.86
4.2,2003.125,775.375,1419.125,1743.625,1791.375,2454,233.375,1518.25,2088.875,1647.5,37.54,37.84
4.3,2003.25,775.25,1419.125,1743.75,1791.25,2454,233.5,1518.5,2089,1647.75,37.53,37.87
4.4,2003.25,775.375,1419.125,1744,1791.25,2454,233.375,1518.875,2089.125,1647.875,37.51,37.88
4.5,2003.375,775.375,1419.125,1744.25,1791.125,2453.875,233.5,1519.125,2089.25,1648,37.53,37.87
4.6,2003.5,775.25,1419.125,1744.5,1791.125,2453.875,233.625,1519.375,2089.375,1648.125,37.53,37.86
4.7,2003.625,775.375,1419.125,1744.75,1791.125,2453.875,233.625,1519.5,2089.625,1648.25,37.51,37.84
4.8,2003.625,775.5,1419.125,1745,1791,2453.75,233.5,1519.75,2089.5,1648.375,37.5,37.81
4.9,2003.75,775.375,1419.125,1745.25,1791,2453.75,233.5,1520,2089.75,1648.5,37.53,37.86
5.0,2003.875,775.5,1419.125,1745.375,1791,2453.625,233.5,1520.25,2089.75,1648.625,37.51,37.84
5.1,2004,775.375,1419.125,1745.625,1790.875,2453.625,233.5,1520.5,2089.875,1648.625,37.53,37.83
5.2,2004,775.375,1419.125,1745.75,1790.875,2453.625,233.5,1520.75,2090,1648.75,37.53,37.83
5.3,2004,775.5,1419.125,1745.875,1790.875,2453.5,233.5,1521,2090.125,1648.75,37.51,37.8
5.4,2004.125,775.625,1419.125,1746.125,1790.75,2453.5,233.5,1521.125,2090.25,1648.875,37.54,37.84
5.5,2004.25,775.5,1419.125,1746.25,1790.75,2453.5,233.375,1521.375,2090.25,1649,37.5,37.81
5.6,2004.25,775.5,1419.25,1746.5,1790.75,2453.375,233.5,1521.625,2090.375,1649,37.51,37.84
5.7,2004.375,775.5,1419.125,1746.625,1790.625,2453.375,233.5,1521.75,2090.5,1649,37.53,37.81
5.8,2004.375,775.5,1419.25,1746.75,1790.625,2453.25,233.5,1521.875,2090.5,1649,37.53,37.87
5.9,2004.5,775.5,1419.25,1746.875,1790.5,2453.25,233.5,1522.125,2090.625,1649.125,37.54,37.77
6.0,2004.625,775.625,1419.25,1747,1790.5,2453.25,233.5,1522.25,2090.75,1649.125,37.53,37.77
6.1,2004.625,775.625,1419.125,1747.125,1790.5,2453.25,233.5,1522.5,2090.75,1649.25,37.54,37.81
6.2,2004.75,775.625,1419.25,1747.25,1790.375,2453.125,233.5,1522.625,2090.875,1649.25,37.54,37.8
6.3,2004.75,775.625,1419.25,1747.375,1790.375,2453.125,233.5,1522.875,2090.875,1649.25,37.53,37.83
6.4,2004.875,775.625,1419.25,1747.5,1790.375,2453.125,233.5,1523,2091,1649.25,37.51,37.84
6.5,2004.875,775.625,1419.25,1747.625,1790.25,2453,233.5,1523.125,2091,1649.25,37.51,37.82
6.6,2005,775.75,1419.25,1747.75,1790.25,2453,233.375,1523.25,2091.125,1649.25,37.54,37.8
6.7,2005,775.75,1419.25,1747.75,1790.125,2453,233.5,1523.375,2091.125,1649.25,37.51,37.78
6.8,2005.125,775.75,1419.25,1747.875,1790.125,2453,233.375,1523.5,2091.125,1649.25,37.54,37.78
6.9,2005.125,775.625,1419.25,1748,1790,2452.875,233.375,1523.625,2091.25,1649.25,37.54,37.76
7.0,2005.25,775.75,1419.25,1748,1790,2452.875,233.5,1523.75,2091.25,1649.125,37.51,37.82
7.1,2005.375,775.75,1419.25,1748,1790,2452.875,233.5,1524,2091.375,1649.125,37.51,37.8
7.2,2005.375,775.75,1419.25,1748.25,1789.875,2452.75,233.375,1524.125,2091.375,1649.125,37.53,37.81
7.3,2005.375,775.75,1419.25,1748.25,1789.875,2452.75,233.5,1524.125,2091.375,1649.125,37.53,37.81
7.4,2005.5,775.875,1419.25,1748.25,1789.875,2452.625,233.5,1524.375,2091.5,1649.125,37.51,37.77
7.5,2005.625,775.75,1419.25,1748.25,1789.75,2452.625,233.375,1524.375,2091.5,1649,37.53,37.77
7.6,2005.625,775.75,1419.25,1748.375,1789.75,2452.625,233.5,1524.5,2091.625,1649,37.53,37.78
7.7,2005.75,775.875,1419.25,1748.375,1789.625,2452.625,233.375,1524.625,2091.625,1649,37.53,37.74
7.8,2005.75,775.875,1419.25,1748.375,1789.625,2452.5,233.375,1524.75,2091.625,1649,37.54,37.74
7.9,2005.75,775.875,1419.25,1748.5,1789.625,2452.5,233.375,1524.875,2091.625,1648.875,37.53,37.77
8.0,2005.875,775.875,1419.25,1748.5,1789.625,2452.5,233.375,1525,2091.75,1648.875,37.53,37.75
8.1,2006,775.875,1419.25,1748.5,1789.5,2452.5,233.375,1525,2091.75,1648.875,37.53,37.75
8.2,2006,775.875,1419.25,1748.625,1789.5,2452.5,233.375,1525.125,2091.75,1648.875,37.53,37.78
8.3,2006.125,775.875,1419.25,1748.625,1789.375,2452.375,233.375,1525.25,2091.875,1648.75,37.54,37.76
8.4,2006.125,775.875,1419.25,1748.625,1789.375,2452.375,233.375,1525.375,2091.875,1648.75,37.56,37.73
8.5,2006.25,775.875,1419.125,1748.625,1789.375,2452.375,233.375,1525.375,2091.875,1648.75,37.54,37.76
8.6,2006.25,775.875,1419.25,1748.625,1789.25,2452.375,233.375,1525.5,2092,1648.625,37.53,37.69
8.7,2006.25,775.875,1419.25,1748.625,1789.25,2452.25,233.375,1525.625,2091.875,1648.625,37.54,37.76
8.8,2006.375,775.875,1419.25,1748.75,1789.25,2452.25,233.375,1525.625,2092,1648.5,37.53,37.75
8.9,2006.5,775.875,1419.25,1748.75,1789.125,2452.25,233.375,1525.75,2092,1648.5,37.54,37.81
9.0,2006.375,776,1419.25,1748.75,1789.125,2452.25,233.375,1525.75,2092.125,1648.375,37.54,37.76
9.1,2006.5,776,1419.25,1748.75,1789,2452.25,233.375,1525.875,2092.125,1648.375,37.53,37.69
9.2,2006.625,776,1419.25,1748.75,1789,2452.125,233.375,1526,2092.125,1648.375,37.53,37.74
9.3,2006.625,775.875,1419.25,1748.75,1789,2452.25,233.375,1526,2092.125,1648.25,37.54,37.72
9.4,2006.625,775.875,1419.25,1748.75,1788.875,2452.125,233.25,1526.125,2092.25,1648.25,37.53,37.78
9.5,2006.75,775.875,1419.25,1748.75,1788.875,2452.125,233.375,1526.25,2092.25,1648.125,37.53,37.72
9.6,2006.75,776,1419.25,1748.75,1788.875,2452.125,233.375,1526.25,2092.25,1648.125,37.53,37.71
9.7,2006.875,776,1419.375,1748.75,1788.875,2452.125,233.375,1526.375,2092.25,1648.125,37.53,37.74
9.8,2006.875,776,1419.25,1748.75,1788.75,2452.125,233.375,1526.375,2092.375,1648,37.53,37.72
9.9,2006.875,776,1419.375,1748.625,1788.75,2452.125,233.5,1526.5,2092.25,1648,37.53,37.72
10.0,2006.875,776,1419.25,1748.625,1788.75,2452,233.375,1526.5,2092.375,1647.875,37.51,37.71
10.1,2006.875,776,1419.25,1748.625,1788.625,2451.875,233.375,1526.625,2092.25,1647.875,37.51,37.69
10.2,2007,776,1419.25,1748.625,1788.625,2451.875,233.375,1526.625,2092.25,1647.75,37.54,37.72
10.3,2007,776,1419.25,1748.5,1788.625,2451.75,233.25,1526.75,2092.375,1647.75,37.53,37.68
10.4,2007.125,776,1419.125,1748.5,1788.5,2451.75,233.375,1526.75,2092.375,1647.625,37.56,37.68
10.5,2007,776,1419.25,1748.5,1788.5,2451.75,233.5,1526.75,2092.5,1647.75,37.53,37.69
10.6,2007.125,776,1419.125,1748.5,1788.5,2451.75,233.375,1526.75,2092.5,1647.875,37.53,37.68
10.7,2007.125,776,1419.125,1748.375,1788.5,2451.75,233.5,1526.875,2092.5,1648.375,37.51,37.66
10.8,2007.25,776,1419.125,1748.375,1788.5,2451.75,233.5,1527,2092.5,1649.625,37.54,37.65
10.9,2007.375,776,1419.125,1748.375,1788.625,2451.875,233.5,1527,2092.625,1651.875,37.51,37.66
11.0,2007.625,776,1419.25,1748.625,1789.125,2452.125,233.5,1527.25,2092.875,1655.75,37.51,37.68
11.1,2008,776,1419.25,1748.875,1790,2452.75,233.625,1527.625,2093.25,1661.875,37.51,37.66
11.2,2008.625,776,1419.125,1749.75,1791.25,2453.625,233.625,1528.375,2094,1670.375,37.53,37.71
11.3,2009.5,776,1419.125,1751.125,1793.125,2455.125,233.75,1529.875,2095.375,1681.625,37.51,37.68
11.4,2010.5,776,1419.125,1753.5,1795.75,2457.375,233.875,1532.375,2097.875,1695.75,37.51,37.69
11.5,2012.125,776,1419.125,1757.125,1799.125,2460.375,234,1536.375,2101.75,1713.375,37.54,37.74
11.6,2013.875,776.125,1419.125,1762.25,1803.375,2464.125,234,1542.375,2107.625,1735.75,37.54,37.68
11.7,2016.125,776.125,1419.25,1769.25,1808.375,2468.75,234.125,1551,2115.625,1763.375,37.54,37.68
11.8,2018.625,776.25,1419.125,1778.25,1814.125,2474.125,234.375,1562.125,2126,1795.625,37.53,37.71
11.9,2021.625,776.375,1419.25,1789.5,1820.5,2480.25,234.5,1576.625,2138.75,1832.75,37.54,37.74
12.0,2025,776.5,1419.25,1803.375,1827.625,2487,234.625,1594.625,2153.875,1875.125,37.56,37.73
12.1,2028.625,776.625,1419.25,1819.5,1835.125,2494.125,234.75,1616,2171,1922,37.56,37.83
12.2,2032.875,776.875,1419.25,1838.25,1843.375,2501.875,235,1641.75,2190.5,1975,37.54,37.83
12.3,2037.375,777,1419.25,1859.625,1852,2509.875,235.125,1671.75,2212.25,2033.75,37.56,37.84
12.4,2042.25,777.375,1419.25,1883.375,1861.125,2518.25,235.375,1705.875,2235.875,2096.875,37.56,37.89
12.5,2047.375,777.5,1419.25,1910,1870.75,2527,235.5,1744.875,2261.625,2164.625,37.57,37.92
12.6,2053,777.875,1419.25,1938.75,1880.625,2536,235.75,1787.625,2288.875,2233.875,37.51,37.9
12.7,2058.875,778.125,1419.25,1970,1891.125,2545.25,235.875,1835.125,2317.75,2305.375,37.54,37.92
12.8,2065.125,778.5,1419.25,2003.5,1901.875,2554.75,236.25,1886.625,2347.875,2377.625,37.56,37.95
12.9,2071.625,778.875,1419.25,2038.375,1913.125,2564.375,236.25,1941.375,2378.625,2448.5,37.57,37.98
13.0,2078.625,779.125,1419.25,2075.375,1924.875,2574.25,236.5,2000.25,2410.375,2518.5,37.54,37.96
13.1,2085.75,779.5,1419.25,2113.625,1936.875,2584,236.625,2062,2442.375,2586,37.56,38.02
13.2,2093.25,780,1419.25,2152.75,1949,2594,236.75,2125.375,2474.125,2649.875,37.56,37.99
13.3,2101,780.375,1419.375,2193,1961.625,2604.125,237.125,2191.375,2506.375,2710.875,37.53,38.07
13.4,2109.125,780.75,1419.25,2234,1974.5,2614.25,237.25,2258.625,2538.5,2768,37.56,38.11
13.5,2117.5,781.25,1419.375,2274.75,1987.375,2624.25,237.25,2326.125,2570.25,2821,37.56,38.12
13.6,2126.125,781.625,1419.375,2316,2000.625,2634.375,237.5,2394.625,2602,2871.375,37.56,38.14
13.7,2135,782.125,1419.25,2357,2014,2644.5,237.625,2462.875,2633.5,2918,37.54,38.18
13.8,2144.125,782.75,1419.25,2397.125,2027.25,2654.375,237.875,2529.75,2664.25,2961,37.54,38.14
13.9,2153.5,783.125,1419.375,2437,2040.75,2664.375,238.125,2596.125,2694.625,3001.5,37.54,38.26
14.0,2163,783.625,1419.25,2476,2054.375,2674.25,238.25,2661,2724.5,3039.25,37.56,38.29
14.1,2172.75,784.125,1419.375,2513.5,2067.875,2683.75,238.25,2723.25,2753.375,3073.875,37.54,38.26
14.2,2182.625,784.75,1419.375,2550.125,2081.375,2693.25,238.5,2783.875,2782,3106.625,37.54,38.3
14.3,2192.875,785.25,1419.375,2585.625,2095,2702.625,238.625,2842.125,2809.875,3137.25,37.54,38.33
14.4,2203.125,785.75,1419.375,2619.5,2108.25,2711.625,238.875,2897.125,2836.75,3165.75,37.56,38.42
14.5,2213.625,786.25,1419.375,2652.125,2121.75,2720.625,239,2950,2863.25,3192.625,37.54,38.39
14.6,2224.375,787,1419.5,2683.375,2135,2729.375,239.125,3000.125,2889,3217.75,37.54,38.41
14.7,2235.125,787.5,1419.5,2712.875,2148.125,2737.875,239.25,3046.875,2913.625,3241.25,37.54,38.46
14.8,2246.125,788.125,1419.5,2741.25,2161.125,2746.25,239.375,3091.25,2937.875,3263.75,37.54,38.48
14.9,2257.25,788.75,1419.5,2768.125,2174.125,2754.375,239.375,3133,2961.25,3284.875,37.56,38.54
15.0,2268.25,789.375,1419.5,2793.5,2186.625,2762.25,239.625,3171.625,2983.625,3304.75,37.54,38.54
15.1,2279.625,789.875,1419.5,2817.625,2199,2770,239.75,3208.125,3005.625,3323.375,37.53,38.55
15.2,2291.125,790.5,1419.5,2840.5,2211.25,2777.375,239.75,3242.25,3026.75,3340.75,37.54,38.64
15.3,2302.625,791.25,1419.5,2862,2223.125,2784.625,240,3273.625,3047,3356.75,37.56,38.61
15.4,2314.25,791.875,1419.625,2882.5,2234.75,2791.625,240.125,3303.375,3066.75,3372,37.57,38.67
15.5,2326,792.625,1419.625,2901.75,2246.25,2798.375,240.25,3331.125,3085.75,3386.625,37.53,38.72
15.6,2337.625,793.25,1419.625,2919.75,2257.25,2804.875,240.375,3356.625,3103.875,3400.5,37.56,38.7
15.7,2349.5,794,1419.625,2937,2268.125,2811.25,240.5,3380.75,3121.75,3413.875,37.56,38.72
15.8,2361.125,794.625,1419.625,2953,2278.625,2817.25,240.75,3403,3138.75,3426.375,37.53,38.7
15.9,2373.125,795.25,1419.75,2968.25,2288.875,2823.125,240.875,3424,3155.125,3438.25,37.54,38.67
16.0,2385,796,1419.625,2982.625,2298.875,2828.875,241,3443.625,3171,3449.5,37.56,38.76
16.1,2396.875,796.75,1419.75,2996.125,2308.375,2834.25,241,3461.75,3186.125,3460.125,37.53,38.79
16.2,2408.875,797.5,1419.75,3008.875,2317.875,2839.5,241.125,3478.875,3200.875,3470.375,37.54,38.89
16.3,2420.875,798.25,1419.75,3021,2326.875,2844.5,241.375,3494.875,3215.125,3480,37.57,38.85
16.4,2432.625,798.875,1419.75,3032.125,2335.625,2849.25,241.5,3509.75,3228.625,3489,37.54,38.83
16.5,2444.5,799.625,1419.875,3042.875,2344,2853.75,241.625,3523.75,3241.75,3497.5,37.54,38.86
16.6,2456.5,800.375,1419.875,3053,2352.125,2858.25,241.625,3536.875,3254.5,3505.625,37.54,38.89
16.7,2468.375,801,1419.875,3062.375,2359.875,2862.5,241.625,3549,3266.625,3513.25,37.57,38.94
16.8,2480.25,801.875,1419.875,3071.375,2367.5,2866.5,241.875,3560.5,3278.375,3520.5,37.56,38.89
16.9,2492,802.625,1419.875,3079.75,2374.75,2870.375,241.875,3571.375,3289.75,3527.5,37.57,38.95
17.0,2503.75,803.375,1419.875,3087.625,2381.625,2874,242,3581.375,3300.5,3534,37.54,38.95
17.1,2515.5,804.125,1420,3095.25,2388.25,2877.5,242,3591,3310.875,3540.25,37.54,38.97
17.2,2527.125,805,1420,3102.375,2394.625,2880.875,242.25,3599.875,3321.125,3546.25,37.57,38.97
17.3,2538.625,805.625,1420,3109.125,2400.625,2884,242.25,3608.25,3330.75,3551.875,37.56,38.98
17.4,2550.125,806.375,1420.125,3115.375,2406.5,2887,242.5,3616.125,3340.125,3557.25,37.54,39.09
17.5,2561.625,807.25,1420.125,3121.375,2412,2889.875,242.5,3623.625,3349.125,3562.625,37.57,39.06
17.6,2572.875,808,1420.125,3127,2417.25,2892.625,242.625,3630.5,3357.625,3567.5,37.54,39.07
17.7,2584.25,808.75,1420.125,3132.25,2422.25,2895.125,242.625,3637.125,3366.125,3572.125,37.54,39.1
17.8,2595.375,809.5,1420.25,3137.25,2427,2897.625,242.75,3643.25,3374.125,3576.625,37.57,39.07
17.9,2606.375,810.25,1420.25,3142,2431.5,2899.875,242.875,3649.125,3381.75,3580.875,37.54,39.09
18.0,2617.375,811.125,1420.25,3146.375,2435.75,2902,242.875,3654.5,3389.125,3585,37.57,39.07
18.1,2628.25,811.875,1420.25,3150.5,2439.75,2904,242.875,3659.75,3396.375,3588.875,37.58,39.12
18.2,2638.875,812.625,1420.25,3154.375,2443.5,2905.875,243,3664.625,3403.125,3592.5,37.54,39.15
18.3,2649.5,813.5,1420.375,3158.125,2447,2907.5,243.25,3669.125,3409.75,3595.875,37.57,39.13
18.4,2660.125,814.25,1420.375,3161.5,2450.375,2909.125,243.375,3673.375,3416.125,3599.125,37.53,39.13
18.5,2670.25,815.125,1420.375,3164.75,2453.375,2910.625,243.375,3677.375,3422.125,3602.25,37.57,39.18
18.6,2680.625,815.75,1420.375,3167.75,2456.25,2912,243.375,3681.25,3428,3605.125,37.58,39.12
18.7,2690.75,816.625,1420.375,3170.625,2458.875,2913.25,243.5,3684.75,3433.75,3607.75,37.56,39.13
18.8,2700.75,817.375,1420.5,3173.125,2461.375,2914.375,243.625,3688.125,3439.125,3610.375,37.56,39.19
18.9,2710.5,818.25,1420.5,3175.625,2463.625,2915.5,243.625,3691.25,3444.375,3612.875,37.56,39.18
19.0,2720.25,819,1420.5,3178,2465.625,2916.375,243.875,3694.25,3449.375,3615.125,37.57,39.18
19.1,2729.875,819.75,1420.5,3180,2467.5,2917.25,243.875,3697,3454.25,3617.25,37.54,39.15
19.2,2739.375,820.625,1420.5,3182,2469.25,2918,243.875,3699.625,3458.875,3619.25,37.56,39.18
19.3,2748.625,821.375,1420.5,3183.75,2470.75,2918.625,243.875,3702,3463.375,3621,37.56,39.19
19.4,2757.75,822.125,1420.625,3185.5,2472.25,2919.25,243.875,3704.25,3467.625,3622.75,37.58,39.22
19.5,2766.875,823,1420.625,3186.875,2473.5,2919.625,244,3706.375,3471.75,3624.5,37.56,39.22
19.6,2775.625,823.75,1420.75,3188.375,2474.5,2920,244.125,3708.375,3475.625,3626,37.57,39.19
19.7,2784.5,824.5,1420.875,3189.5,2475.5,2920.375,244.125,3710.125,3479.375,3627.375,37.56,39.25
19.8,2793.125,825.25,1420.75,3190.625,2476.25,2920.625,244.25,3711.875,3483,3628.625,37.57,39.27
19.9,2801.5,826,1420.75,3191.625,2477,2920.875,244.125,3713.375,3486.5,3629.75,37.57,39.19
20.0,2809.875,826.875,1420.75,3192.5,2477.5,2921,244.125,3714.875,3489.75,3630.875,37.57,39.27
20.1,2818.125,827.625,1420.875,3193.375,2477.75,2921,244.375,3716.25,3493,3631.875,37.57,39.22
20.2,2826.125,828.375,1420.875,3194,2478.125,2921,244.375,3717.5,3495.875,3632.75,37.54,39.2
20.3,2834,829,1420.875,3194.625,2478.25,2920.875,244.5,3718.625,3498.875,3633.5,37.57,39.25
20.4,2841.75,829.875,1421,3195,2478.25,2920.75,244.5,3719.75,3501.75,3634.25,37.54,39.23
20.5,2849.375,830.625,1421,3195.375,2478.125,2920.625,244.625,3720.75,3504.375,3634.875,37.54,39.26
20.6,2856.875,831.375,1421,3195.625,2477.875,2920.375,244.5,3721.625,3506.875,3635.5,37.57,39.24
20.7,2864.25,832.125,1421,3195.875,2477.5,2920,244.625,3722.375,3509.375,3635.875,37.53,39.23
20.8,2871.375,832.875,1421.125,3196,2477.125,2919.625,244.625,3723.125,3511.75,3636.375,37.57,39.22
20.9,2878.5,833.625,1421.125,3196,2476.625,2919.25,244.75,3723.75,3513.875,3636.75,37.57,39.22
