time(s),F1,F2,F3,F4,F5,F6,F7,F8,F9,F10,Temp,Humid
0.0,1988.625,770.75,1434.875,1720.875,1825.875,2480.375,245.125,1351.75,1991.875,1600,36.88,43.85
0.1,1988.875,770.75,1434.875,1722.375,1826.125,2480.5,245.125,1353.625,1993,1601.875,36.9,43.82
0.2,1989.125,770.75,1434.875,1724,1826.375,2480.75,245.125,1355.5,1994.125,1603.875,36.89,43.88
0.3,1989.375,770.75,1435,1725.625,1826.625,2480.75,245.125,1357.5,1995.25,1605.75,36.89,43.85
0.4,1989.625,770.75,1435,1727.25,1827,2480.875,245.125,1359.375,1996.5,1607.5,36.9,43.84
0.5,1989.875,770.75,1435,1728.75,1827.25,2481,245.125,1361.25,1997.5,1609.375,36.9,43.88
0.6,1990,770.75,1435,1730.375,1827.375,2481.125,245.125,1363,1998.5,1611.25,36.92,43.85
0.7,1990.375,770.75,1435,1731.875,1827.625,2481.25,245.25,1364.875,1999.625,1612.875,36.89,43.83
0.8,1990.625,770.75,1435,1733.5,1827.75,2481.25,245.125,1366.625,2000.625,1614.625,36.89,43.89
0.9,1990.75,770.75,1435,1735,1828,2481.375,245.25,1368.375,2001.625,1616.375,36.92,43.91
1.0,1991.125,770.75,1435,1736.5,1828.125,2481.5,245.125,1370.125,2002.5,1618,36.9,43.88
1.1,1991.375,770.75,1435,1738.125,1828.375,2481.625,245.125,1371.875,2003.5,1619.625,36.89,43.85
1.2,1991.5,770.75,1435,1739.625,1828.5,2481.625,245.125,1373.625,2004.375,1621.125,36.9,43.92
1.3,1991.875,770.75,1435,1741,1828.625,2481.75,245.25,1375.25,2005.375,1622.75,36.9,43.88
1.4,1992.125,770.75,1435,1742.5,1828.75,2481.75,245.125,1376.875,2006.125,1624.25,36.92,43.9
1.5,1992.25,770.875,1435,1744,1828.75,2481.75,245.125,1378.5,2007,1625.75,36.92,43.87
1.6,1992.5,770.75,1435,1745.375,1829,2481.875,245,1380,2007.875,1627.125,36.92,43.87
1.7,1992.75,770.75,1435,1746.75,1829,2481.875,245.125,1381.625,2008.75,1628.625,36.92,43.85
1.8,1993,770.875,1435,1748.125,1829,2481.875,245.125,1383.125,2009.5,1629.875,36.9,43.84
1.9,1993.25,770.75,1435,1749.5,1829.25,2482,245,1384.625,2010.25,1631.25,36.93,43.94
2.0,1993.5,770.875,1435,1750.875,1829.25,2482,245.125,1386,2011,1632.5,36.89,43.88
2.1,1993.75,770.875,1435,1752.25,1829.25,2482,245,1387.5,2011.75,1633.75,36.92,43.87
2.2,1994,770.875,1435,1753.625,1829.375,2482,245.125,1388.875,2012.375,1635,36.9,43.85
2.3,1994.25,770.875,1435,1754.875,1829.25,2482,245,1390.25,2013.125,1636.125,36.9,43.87
2.4,1994.5,770.875,1435,1756.125,1829.25,2482,245.125,1391.625,2013.75,1637.25,36.92,43.88
2.5,1994.75,771,1435.125,1757.25,1829.25,2482,245.125,1392.875,2014.375,1638.375,36.92,43.91
2.6,1995,770.875,1435,1758.5,1829.25,2482,245.375,1394.125,2015,1639.375,36.9,43.85
2.7,1995.125,770.875,1435.125,1759.75,1829.25,2481.875,245.25,1395.375,2015.625,1640.375,36.92,43.87
2.8,1995.375,771,1435.125,1761,1829.25,2481.75,245,1396.625,2016.125,1641.375,36.92,43.84
2.9,1995.625,771,1435.125,1762,1829.125,2481.75,245,1397.875,2016.75,1642.375,36.93,43.88
3.0,1995.875,771,1435.125,1763.125,1829.125,2481.625,245.25,1399,2017.25,1643.25,36.92,43.9
3.1,1996,771,1435.125,1764.25,1829.125,2481.625,245,1400.125,2017.75,1644.125,36.95,43.86
3.2,1996.25,770.875,1435.125,1765.375,1829,2481.5,245.125,1401.125,2018.25,1645,36.92,43.87
3.3,1996.5,771,1435.125,1766.375,1828.875,2481.5,245.125,1402.25,2018.75,1645.75,36.95,43.83
3.4,1996.75,771,1435.125,1767.375,1828.75,2481.375,245,1403.25,2019.125,1646.375,36.92,43.82
3.5,1996.875,771,1435.125,1768.375,1828.75,2481.25,245.25,1404.25,2019.5,1647.125,36.95,43.84
3.6,1997.125,771,1435.125,1769.375,1828.625,2481.125,245.125,1405.25,2019.875,1647.875,36.92,43.82
3.7,1997.375,771,1435.125,1770.375,1828.5,2481,245.25,1406.125,2020.25,1648.5,36.9,43.82
3.8,1997.5,771,1435.125,1771.125,1828.5,2481,245.125,1407.125,2020.75,1649.125,36.92,43.79
3.9,1997.75,771.125,1435.125,1772,1828.25,2480.875,245.125,1408,2021.125,1649.75,36.92,43.78
4.0,1997.875,771.125,1435,1772.875,1828.25,2480.75,245.25,1408.75,2021.5,1650.25,36.93,43.8
4.1,1998.125,771.125,1435,1773.75,1828.125,2480.75,245.125,1409.625,2021.75,1650.75,36.92,43.79
4.2,1998.375,771.25,1435.125,1774.5,1828,2480.625,245.125,1410.375,2022.125,1651.25,36.9,43.81
4.3,1998.5,771.25,1435.125,1775.375,1827.875,2480.5,245.25,1411.25,2022.375,1651.75,36.93,43.8
4.4,1998.75,771.25,1435.125,1776.125,1827.75,2480.375,245.125,1411.875,2022.625,1652.125,36.92,43.79
4.5,1999,771.25,1435,1776.875,1827.625,2480.25,245.125,1412.625,2023,1652.5,36.92,43.79
4.6,1999.125,771.25,1435,1777.625,1827.5,2480.125,245.125,1413.25,2023.125,1652.875,36.95,43.78
4.7,1999.375,771.375,1435,1778.25,1827.375,2480,245.125,1414,2023.5,1653.125,36.92,43.79
4.8,1999.5,771.25,1435,1778.875,1827.25,2480,245.125,1414.625,2023.75,1653.5,36.92,43.81
4.9,1999.625,771.375,1435,1779.625,1827.125,2479.875,245.25,1415.125,2024,1653.75,36.95,43.75
5.0,1999.875,771.375,1435,1780.25,1827,2479.75,245.25,1415.75,2024.25,1654.125,36.93,43.77
5.1,2000,771.5,1435,1780.75,1826.75,2479.625,245.125,1416.375,2024.5,1654.375,36.93,43.74
5.2,2000.25,771.375,1435,1781.375,1826.625,2479.5,245.25,1416.875,2024.75,1654.625,36.95,43.77
5.3,2000.375,771.375,1435,1782,1826.5,2479.5,245.25,1417.5,2024.875,1654.75,36.93,43.72
5.4,2000.625,771.5,1435,1782.5,1826.375,2479.375,245.25,1418,2025.125,1655,36.92,43.78
5.5,2000.75,771.5,1435.125,1783,1826.25,2479.25,245.125,1418.375,2025.375,1655.125,36.92,43.72
5.6,2001,771.5,1435,1783.5,1826.125,2479.25,245.125,1419,2025.5,1655.375,36.93,43.71
5.7,2001.125,771.625,1435,1784,1826,2479,245.25,1419.375,2025.625,1655.375,36.93,43.68
5.8,2001.375,771.625,1435,1784.5,1825.75,2479,245,1419.875,2025.75,1655.5,36.92,43.69
5.9,2001.5,771.625,1435.125,1784.875,1825.625,2478.875,245,1420.25,2025.875,1655.625,36.92,43.69
6.0,2001.75,771.625,1435,1785.375,1825.5,2478.875,245.125,1420.625,2026,1655.625,36.93,43.65
6.1,2002,771.625,1435,1785.75,1825.375,2478.75,245.125,1421.125,2026.125,1655.75,36.93,43.74
6.2,2002.125,771.75,1435.125,1786.125,1825.25,2478.625,245,1421.375,2026.25,1655.75,36.93,43.68
6.3,2002.375,771.75,1435.125,1786.5,1825.125,2478.5,245,1421.75,2026.375,1655.75,36.93,43.66
6.4,2002.5,771.75,1435.125,1786.75,1825,2478.375,245.125,1422.125,2026.5,1655.75,36.9,43.67
6.5,2002.625,771.875,1435,1787.125,1824.875,2478.25,245,1422.5,2026.5,1655.75,36.92,43.66
6.6,2002.75,771.875,1435.125,1787.5,1824.75,2478.25,245.125,1422.75,2026.625,1655.75,36.92,43.63
6.7,2003,771.875,1435.125,1787.75,1824.5,2478.125,245,1423.125,2026.625,1655.75,36.92,43.65
6.8,2003.125,771.875,1435.125,1788,1824.5,2478,245,1423.375,2026.75,1655.625,36.92,43.7
6.9,2003.25,772,1435.125,1788.375,1824.375,2477.875,245,1423.625,2026.75,1655.625,36.92,43.65
7.0,2003.375,772,1435.125,1788.625,1824.125,2477.875,245.125,1423.875,2026.75,1655.625,36.92,43.61
7.1,2003.5,772,1435.125,1788.75,1824,2477.75,245,1424.125,2026.75,1655.5,36.93,43.65
7.2,2003.75,772,1435.125,1789.125,1823.875,2477.625,244.875,1424.375,2026.875,1655.375,36.93,43.66
7.3,2003.875,772,1435.25,1789.25,1823.75,2477.625,245,1424.5,2026.875,1655.25,36.93,43.59
7.4,2004,772,1435.125,1789.375,1823.625,2477.5,245,1424.75,2026.875,1655.125,36.9,43.59
7.5,2004.125,772.125,1435.25,1789.625,1823.5,2477.375,245,1424.875,2026.875,1655.125,36.92,43.6
7.6,2004.25,772.125,1435.125,1789.75,1823.25,2477.375,245,1425.125,2026.875,1655,36.9,43.6
7.7,2004.375,772.125,1435.125,1789.875,1823.25,2477.25,244.875,1425.25,2026.875,1654.75,36.92,43.59
7.8,2004.5,772.25,1435.125,1790,1823,2477.125,244.875,1425.375,2027,1654.625,36.9,43.53
7.9,2004.625,772.125,1435.25,1790.125,1822.875,2477.125,245,1425.625,2027,1654.5,36.93,43.6
8.0,2004.75,772.25,1435.25,1790.25,1822.75,2477,244.875,1425.625,2027,1654.25,36.9,43.59
8.1,2004.875,772.25,1435.25,1790.375,1822.625,2476.875,244.875,1425.75,2027,1654.125,36.93,43.54
8.2,2005,772.25,1435.25,1790.5,1822.5,2476.875,244.875,1425.875,2026.875,1654,36.92,43.54
8.3,2005.125,772.25,1435.125,1790.5,1822.375,2476.75,244.875,1426,2026.875,1653.75,36.92,43.51
8.4,2005.25,772.25,1435.25,1790.625,1822.25,2476.5,244.75,1426.125,2026.875,1653.5,36.92,43.51
8.5,2005.375,772.25,1435.125,1790.625,1822.125,2476.5,244.875,1426.25,2026.75,1653.25,36.92,43.54
8.6,2005.5,772.25,1435.25,1790.625,1822,2476.375,244.875,1426.25,2026.75,1653,36.92,43.56
8.7,2005.625,772.375,1435.25,1790.75,1821.875,2476.375,245,1426.375,2026.625,1652.75,36.92,43.57
8.8,2005.75,772.25,1435.125,1790.75,1821.625,2476.25,245,1426.375,2026.625,1652.625,36.92,43.51
8.9,2005.75,772.375,1435.125,1790.75,1821.5,2476.125,245,1426.5,2026.625,1652.375,36.93,43.53
9.0,2005.875,772.375,1435.25,1790.75,1821.375,2476,245,1426.5,2026.5,1652.25,36.9,43.51
9.1,2006,772.375,1435.25,1790.75,1821.25,2476,244.875,1426.5,2026.5,1652,36.9,43.48
9.2,2006.125,772.5,1435.25,1790.625,1821.125,2475.875,245,1426.5,2026.375,1651.75,36.92,43.51
9.3,2006.25,772.5,1435.125,1790.625,1821,2475.875,245,1426.5,2026.375,1651.5,36.9,43.54
9.4,2006.25,772.625,1435.125,1790.625,1820.875,2475.75,245,1426.625,2026.375,1651.25,36.93,43.53
9.5,2006.375,772.5,1435.25,1790.5,1820.75,2475.625,245,1426.5,2026.375,1651,36.9,43.51
9.6,2006.5,772.5,1435.25,1790.5,1820.625,2475.625,245.125,1426.5,2026.25,1650.75,36.92,43.44
9.7,2006.625,772.625,1435.125,1790.375,1820.5,2475.5,244.875,1426.625,2026.25,1650.5,36.93,43.5
9.8,2006.625,772.625,1435.25,1790.25,1820.375,2475.5,245.125,1426.5,2026.125,1650.25,36.93,43.51
9.9,2006.625,772.625,1435.25,1790.125,1820.25,2475.375,245,1426.5,2026.125,1650,36.92,43.47
10.0,2006.875,772.625,1435.125,1790,1820.125,2475.25,245,1426.375,2026.125,1649.75,36.93,43.47
10.1,2006.875,772.625,1435,1789.875,1820,2475.125,245,1426.375,2026.125,1649.625,36.93,43.49
10.2,2006.875,772.625,1434.875,1789.625,1819.875,2475.125,245,1426.25,2026.375,1649.5,36.96,43.49
10.3,2007,772.625,1434.875,1789.375,1819.75,2475.125,245,1426.125,2026.5,1649.375,36.92,43.49
10.4,2007.125,772.625,1434.75,1789.125,1819.5,2475,245,1426,2026.5,1649.375,36.93,43.47
10.5,2007.25,772.75,1434.625,1788.875,1819.5,2475,245,1425.875,2026.625,1649.25,36.93,43.41
10.6,2007.25,772.75,1434.625,1788.75,1819.375,2474.875,245.125,1425.75,2026.75,1649.5,36.96,43.44
10.7,2007.375,772.75,1434.5,1788.5,1819.25,2474.875,245,1425.625,2026.875,1650.5,36.93,43.46
10.8,2007.5,772.75,1434.5,1788.375,1819.375,2475,245.125,1425.625,2026.875,1653.375,36.93,43.44
10.9,2007.75,772.75,1434.5,1788.5,1819.875,2475.25,245.25,1425.5,2027.125,1659.375,36.92,43.45
11.0,2008.25,772.875,1434.375,1789.375,1821.125,2476,245.25,1425.625,2027.5,1670.75,36.92,43.38
11.1,2009.125,772.875,1434.375,1791.375,1823.625,2477.5,245.5,1426.125,2028.125,1688.75,36.92,43.45
11.2,2010.375,773,1434.375,1795.625,1827.625,2480.5,245.375,1427.25,2029.875,1716.875,36.95,43.41
11.3,2012.25,773,1434.25,1803.375,1833.375,2485.25,245.625,1429.875,2033.125,1756.625,36.93,43.43
11.4,2014.75,773,1434.25,1815.25,1840.875,2491.875,245.875,1435.25,2038.875,1810.5,36.93,43.43
11.5,2018,773.25,1434.25,1832.375,1850.625,2500.375,246.125,1444.625,2048.625,1878.375,36.9,43.44
11.6,2022.25,773.5,1434.25,1855.625,1862.125,2510.625,246.375,1459.5,2063.25,1958.625,36.93,43.41
11.7,2027.375,773.75,1434.25,1885.375,1875.5,2522.75,246.5,1481.5,2083.75,2049.125,36.92,43.44
11.8,2033.375,774.25,1434.25,1923,1890.625,2536.625,246.875,1512.875,2111.625,2148.625,36.92,43.45
11.9,2040.375,774.625,1434.25,1967.875,1907.75,2552.25,247.125,1555.125,2147.5,2254,36.93,43.47
12.0,2048.375,775.125,1434.25,2019.25,1926.75,2569.125,247.5,1608.375,2190.375,2364.5,36.95,43.44
12.1,2057.25,775.75,1434.25,2077.875,1947.875,2587.5,247.875,1674.25,2240.375,2481.25,36.9,43.44
12.2,2067.125,776.375,1434.125,2142.125,1970.875,2607.125,248.375,1752.75,2295.375,2597,36.93,43.47
12.3,2078,777.125,1434.125,2210.375,1995.625,2627.75,248.75,1842.5,2353.5,2706,36.92,43.47
12.4,2089.875,777.875,1434.125,2282.875,2022,2649.625,249.125,1944.75,2415.125,2808.125,36.93,43.5
12.5,2102.75,778.625,1434.125,2358,2049.875,2672.25,249.5,2057.625,2478.75,2902.75,36.93,43.49
12.6,2116.25,779.5,1434.125,2433.375,2078.875,2695.25,249.875,2178.125,2542.875,2988.875,36.9,43.53
12.7,2130.75,780.375,1434.125,2509.375,2109.625,2718.75,250.25,2306.25,2607.875,3068.75,36.93,43.49
12.8,2145.875,781.375,1434.125,2583,2141.125,2742.125,250.625,2436.625,2672,3141.625,36.95,43.56
12.9,2162.125,782.375,1434.125,2654.875,2174,2765.875,250.875,2568.5,2735.75,3208.625,36.93,43.59
13.0,2179.125,783.5,1434.125,2723.375,2207.75,2789.5,251.375,2697.75,2798.125,3269,36.92,43.6
13.1,2196.625,784.5,1434.125,2787.25,2241.75,2812.625,251.75,2820.375,2857.875,3323.25,36.93,43.65
13.2,2215,785.625,1434.25,2847.5,2276.5,2835.625,252.25,2936.625,2915.75,3372.5,36.95,43.65
13.3,2234,786.875,1434.25,2903.375,2311.5,2858.125,252.5,3043.875,2971.125,3416.625,36.93,43.68
13.4,2253.5,788,1434.25,2954.125,2346.25,2880,252.875,3140.25,3023.25,3456.375,36.89,43.69
13.5,2273.75,789.25,1434.25,3001.25,2380.875,2901.375,253.25,3227.5,3073.125,3493.125,36.92,43.73
13.6,2294.5,790.5,1434.25,3044.125,2415,2921.875,253.625,3304.75,3120.125,3526.375,36.93,43.78
13.7,2315.5,791.75,1434.375,3082.875,2448.25,2941.5,254,3372.125,3163.875,3555.75,36.93,43.83
13.8,2337.125,793,1434.25,3118.375,2481,2960.5,254.5,3431.875,3205.5,3581.75,36.96,43.83
13.9,2359.25,794.5,1434.375,3150.5,2512.625,2978.75,254.75,3484.125,3244.5,3605.125,36.92,43.82
14.0,2381.375,796,1434.375,3179.375,2543.125,2995.875,255.125,3529.25,3280.625,3626.125,36.92,43.9
14.1,2404.125,797.25,1434.375,3205.75,2572.625,3012.25,255.375,3569.25,3314.625,3646,36.93,43.94
14.2,2426.875,798.75,1434.375,3229.75,2601,3027.75,255.625,3604.25,3346.375,3664.125,36.92,43.94
14.3,2449.75,800.25,1434.5,3251.375,2627.75,3042.375,256.125,3634.625,3375.75,3680.875,36.92,43.96
14.4,2473,801.75,1434.5,3271,2653.625,3056.125,256.5,3661.75,3403.5,3696.5,36.95,44.02
14.5,2496.375,803.25,1434.5,3289.125,2678.125,3069.25,256.875,3685.625,3429.375,3710.75,36.97,44.07
14.6,2519.5,804.75,1434.5,3305.375,2701.125,3081.5,257,3706.5,3453.125,3723.625,36.95,44.06
14.7,2542.875,806.25,1434.625,3320.5,2723.125,3093,257.25,3725.375,3475.75,3735.25,36.96,44.1
14.8,2566.25,808,1434.625,3334.25,2743.875,3103.75,257.625,3742,3496.75,3746.125,36.96,44.14
14.9,2589.375,809.5,1434.625,3346.625,2763.125,3113.875,257.875,3756.875,3516.125,3756.125,36.97,44.2
15.0,2612.625,811.125,1434.75,3358.25,2781.625,3123.25,258.125,3770.125,3534.375,3765.375,36.93,44.2
15.1,2635.75,812.75,1434.75,3369,2799,3132.125,258.5,3782.125,3551.375,3774.125,36.96,44.21
15.2,2658.5,814.375,1434.875,3378.75,2815,3140.375,258.75,3792.75,3567.25,3782.125,36.95,44.27
15.3,2681.375,816.125,1434.75,3387.75,2830.25,3148.125,259,3802.375,3582,3789.625,36.95,44.28
15.4,2703.875,817.75,1434.875,3396.125,2844.375,3155.25,259.25,3811.125,3596,3796.5,36.93,44.28
15.5,2726,819.375,1434.875,3403.75,2857.625,3161.875,259.5,3818.875,3608.875,3802.875,36.95,44.33
15.6,2748.125,821.125,1435,3411,2870,3168.125,259.875,3826,3621.125,3808.875,36.95,44.36
15.7,2769.875,822.75,1435,3417.625,2881.625,3173.875,260,3832.5,3632.5,3814.625,36.96,44.39
15.8,2791.125,824.5,1435.125,3423.625,2892.25,3179.125,260.25,3838.25,3643,3819.875,36.96,44.45
15.9,2812.25,826.25,1435.125,3429.25,2902.375,3184,260.625,3843.625,3653,3824.875,36.93,44.45
16.0,2832.875,828,1435.25,3434.375,2911.625,3188.375,260.875,3848.5,3662.375,3829.5,36.96,44.52
16.1,2853.25,829.875,1435.25,3439.25,2920.25,3192.5,261.125,3852.75,3671.125,3833.75,36.95,44.49
16.2,2873.375,831.625,1435.25,3443.625,2928.25,3196.25,261.375,3856.75,3679.25,3837.875,36.92,44.47
16.3,2892.75,833.375,1435.375,3447.75,2935.5,3199.625,261.5,3860.5,3687,3841.625,36.95,44.57
16.4,2912.125,835.125,1435.375,3451.5,2942.25,3202.75,261.75,3863.75,3694.25,3845,36.93,44.57
16.5,2930.875,837,1435.5,3454.875,2948.375,3205.625,262,3866.75,3701,3848.25,36.95,44.57
16.6,2949.25,838.75,1435.625,3458,2954.125,3208.25,262.125,3869.5,3707.25,3851,36.95,44.68
16.7,2967.25,840.5,1435.625,3461,2959.25,3210.5,262.375,3872,3713.25,3853.875,36.93,44.64
16.8,2985,842.375,1435.75,3463.75,2964,3212.5,262.5,3874.375,3718.875,3856.375,36.93,44.68
16.9,3001.875,844.375,1435.75,3466.25,2968.375,3214.375,262.75,3876.375,3724.125,3858.75,36.95,44.74
17.0,3018.75,846.125,1435.875,3468.5,2972.25,3216,263,3878.375,3729,3861,36.93,44.73
17.1,3035.125,848,1435.875,3470.5,2975.875,3217.375,263.25,3880.125,3733.625,3863.125,36.95,44.7
17.2,3050.875,849.875,1436,3472.375,2979,3218.625,263.375,3881.75,3738,3865,36.95,44.7
17.3,3066.375,851.625,1436,3474.125,2981.875,3219.625,263.625,3883.125,3742.125,3866.75,36.93,44.79
17.4,3081.375,853.625,1436.125,3475.625,2984.25,3220.5,263.75,3884.375,3746,3868.375,36.93,44.79
17.5,3095.875,855.375,1436.25,3476.875,2986.5,3221.25,264,3885.625,3749.5,3869.875,36.93,44.79
17.6,3110.125,857.25,1436.25,3478.125,2988.375,3221.75,264.25,3886.75,3753,3871.25,36.92,44.83
17.7,3124,859.125,1436.375,3479.25,2990.125,3222.125,264.25,3887.625,3756.125,3872.5,36.96,44.86
17.8,3137.25,861,1436.375,3480.25,2991.375,3222.25,264.625,3888.625,3759.125,3873.625,36.93,44.89
17.9,3150.25,862.75,1436.5,3481,2992.375,3222.375,264.75,3889.375,3762,3874.75,36.96,44.88
18.0,3162.875,864.75,1436.5,3481.625,2993.25,3222.375,264.75,3890,3764.625,3875.625,36.95,44.93
18.1,3174.875,866.5,1436.625,3482.25,2993.75,3222.125,265,3890.75,3767,3876.5,36.95,44.89
18.2,3186.75,868.375,1436.625,3482.75,2994.125,3221.875,265.25,3891.125,3769.375,3877.25,36.96,44.92
18.3,3198,870.25,1436.75,3483,2994.125,3221.5,265.25,3891.75,3771.5,3877.875,36.96,44.95
18.4,3209,872.125,1436.875,3483.375,2994,3220.875,265.625,3892,3773.5,3878.5,36.96,44.98
18.5,3219.625,874,1436.875,3483.5,2993.625,3220.25,265.625,3892.375,3775.5,3879,36.95,45.02
18.6,3229.875,875.875,1436.875,3483.625,2993.125,3219.5,265.75,3892.625,3777.125,3879.375,36.96,44.95
18.7,3239.75,877.75,1437,3483.625,2992.375,3218.75,265.75,3892.875,3778.875,3879.625,36.95,44.98
18.8,3249.25,879.5,1437.125,3483.625,2991.375,3217.875,266,3893,3780.375,3879.875,36.96,44.99
18.9,3258.375,881.375,1437.125,3483.375,2990.25,3216.875,266.125,3893.125,3781.875,3880.25,36.93,45.03
19.0,3267.25,883.125,1437.125,3483.125,2989.125,3215.75,266.375,3893.125,3783.25,3880.5,36.95,44.99
19.1,3275.75,885.125,1437.25,3482.875,2987.75,3214.5,266.375,3893.125,3784.375,3880.625,36.95,45.07
19.2,3284,886.875,1437.25,3482.375,2986.25,3213.25,266.5,3893.125,3785.625,3880.625,36.96,45.08
19.3,3291.875,888.625,1437.25,3482,2984.625,3212,266.625,3893,3786.75,3880.625,36.95,45.07
19.4,3299.5,890.625,1437.375,3481.5,2982.875,3210.5,266.75,3892.875,3787.625,3880.5,36.93,45.05
19.5,3306.75,892.375,1437.5,3480.75,2981,3209,266.75,3892.75,3788.5,3880.375,36.96,45.08
19.6,3313.75,894.125,1437.5,3480.125,2979,3207.625,266.875,3892.5,3789.25,3880.125,36.95,45.07
19.7,3320.5,896,1437.625,3479.375,2976.875,3206,267,3892.25,3789.875,3879.875,36.96,45.08
19.8,3326.875,897.75,1437.625,3478.625,2974.625,3204.25,267,3891.875,3790.5,3879.625,36.95,45.11
19.9,3333.125,899.5,1437.75,3477.75,2972.25,3202.5,267.125,3891.625,3791,3879.375,36.95,45.11
20.0,3339.125,901.375,1437.75,3476.875,2969.75,3200.75,267.375,3891.125,3791.5,3879,36.93,45.11
20.1,3344.75,903.125,1437.75,3476,2967.25,3198.875,267.5,3890.875,3791.875,3878.625,36.96,45.1
20.2,3350.125,904.875,1437.875,3474.875,2964.625,3197,267.625,3890.375,3792.25,3878.25,36.95,45.1
20.3,3355.375,906.5,1437.875,3473.875,2961.875,3195.125,267.625,3890,3792.625,3877.75,36.93,45.17
20.4,3360.375,908.375,1438,3472.75,2959.125,3193.125,267.875,3889.5,3792.875,3877.25,36.92,45.15
20.5,3365.125,910.125,1438,3471.625,2956.25,3191,267.875,3889,3793,3876.625,36.95,45.16
20.6,3369.75,911.875,1438.125,3470.5,2953.25,3189,268,3888.375,3793.125,3876.125,36.93,45.14
20.7,3374.125,913.5,1438.125,3469.25,2950.125,3186.875,268.375,3887.875,3793.25,3875.5,36.95,45.11
20.8,3378.25,915.125,1438.25,3467.875,2947.125,3184.625,268.125,3887.25,3793.375,3875,36.92,45.14
20.9,3382.25,916.875,1438.25,3466.625,2943.875,3182.5,268.375,3886.75,3793.375,3874.25,36.96,45.2
21.0,3386,918.5,1438.25,3465.25,2940.625,3180.25,268.375,3886.125,3793.25,3873.5,36.97,45.17
21.1,3389.5,920.125,1438.375,3463.875,2937.375,3178,268.375,3885.5,3793.125,3872.75,36.93,45.17
