time(s),F1,F2,F3,F4,F5,F6,F7,F8,F9,F10,Temp,Humid
0.0,1971.875,774.75,1429.375,1738.875,1810.875,2475.875,238.25,1382.5,2064.75,1629.25,37.5,39.69
0.1,1972,774.75,1429.375,1739.375,1810.875,2475.75,238.125,1383,2065,1629.625,37.48,39.71
0.2,1972.25,774.875,1429.375,1739.875,1810.875,2475.875,238.125,1383.5,2065.25,1629.875,37.51,39.7
0.3,1972.375,774.875,1429.375,1740.375,1810.875,2475.875,238.125,1384,2065.5,1630.25,37.51,39.68
0.4,1972.5,774.875,1429.5,1740.875,1810.875,2475.875,238.125,1384.375,2065.75,1630.5,37.5,39.69
0.5,1972.75,774.875,1429.5,1741.25,1810.875,2475.875,238.125,1384.875,2066,1630.875,37.53,39.74
0.6,1973,774.875,1429.5,1741.75,1810.875,2475.875,238.25,1385.375,2066.25,1631.125,37.51,39.69
0.7,1973.125,774.875,1429.375,1742.125,1810.875,2475.875,238.125,1385.75,2066.5,1631.5,37.51,39.73
0.8,1973.25,775,1429.5,1742.625,1810.875,2475.75,238.125,1386.25,2066.75,1631.75,37.53,39.65
0.9,1973.5,775,1429.5,1743,1810.875,2475.75,238.125,1386.75,2067,1632,37.5,39.7
1.0,1973.625,775,1429.5,1743.375,1810.875,2475.75,238.125,1387.25,2067.125,1632.25,37.51,39.72
1.1,1973.75,775,1429.5,1743.75,1810.75,2475.75,238.125,1387.625,2067.375,1632.625,37.51,39.73
1.2,1973.875,775,1429.5,1744.25,1810.75,2475.625,238.125,1388.125,2067.625,1632.75,37.53,39.68
1.3,1974.125,775,1429.625,1744.625,1810.75,2475.625,238.125,1388.5,2067.75,1633,37.53,39.74
1.4,1974.25,775.125,1429.625,1745,1810.625,2475.5,238.25,1388.875,2068,1633.25,37.5,39.69
1.5,1974.375,775.125,1429.625,1745.25,1810.625,2475.375,238.25,1389.25,2068.125,1633.375,37.5,39.7
1.6,1974.5,775.125,1429.625,1745.625,1810.5,2475.375,238.125,1389.625,2068.25,1633.625,37.53,39.68
1.7,1974.75,775.125,1429.625,1746,1810.375,2475.125,238,1390,2068.5,1633.75,37.51,39.68
1.8,1974.875,775.25,1429.625,1746.25,1810.375,2475.125,238.125,1390.375,2068.625,1633.875,37.54,39.71
1.9,1975,775.25,1429.75,1746.625,1810.25,2474.875,238.125,1390.75,2068.75,1634,37.53,39.66
2.0,1975.125,775.25,1429.75,1747,1810.125,2474.75,238.25,1391.125,2068.875,1634.125,37.53,39.63
2.1,1975.25,775.375,1429.75,1747.25,1810,2474.5,238.125,1391.375,2069,1634.25,37.51,39.69
2.2,1975.375,775.375,1429.75,1747.5,1809.875,2474.25,238.25,1391.75,2069.125,1634.25,37.51,39.64
2.3,1975.625,775.375,1429.75,1747.75,1809.75,2474.125,238.125,1392,2069.25,1634.375,37.53,39.65
2.4,1975.75,775.5,1429.75,1748,1809.625,2473.875,238.25,1392.375,2069.25,1634.375,37.5,39.66
2.5,1975.75,775.625,1429.75,1748.25,1809.375,2473.75,238.125,1392.625,2069.375,1634.375,37.53,39.63
2.6,1975.875,775.625,1429.75,1748.5,1809.25,2473.5,238,1392.875,2069.5,1634.375,37.53,39.63
2.7,1976,775.625,1429.875,1748.625,1809.125,2473.25,238.125,1393.125,2069.5,1634.375,37.5,39.61
2.8,1976.25,775.75,1429.875,1748.875,1808.875,2473,238.125,1393.375,2069.5,1634.25,37.53,39.6
2.9,1976.375,775.75,1429.875,1749,1808.75,2472.75,238.125,1393.5,2069.625,1634.25,37.51,39.64
3.0,1976.375,775.875,1429.875,1749.125,1808.5,2472.5,238.125,1393.75,2069.625,1634.125,37.53,39.63
3.1,1976.625,775.875,1429.875,1749.25,1808.375,2472.25,238.125,1394,2069.625,1634,37.54,39.56
3.2,1976.75,776,1430,1749.5,1808.125,2472,238,1394.125,2069.625,1634,37.53,39.59
3.3,1976.75,776,1430,1749.625,1807.875,2471.75,237.875,1394.25,2069.625,1633.875,37.54,39.56
3.4,1976.875,776,1430,1749.625,1807.75,2471.5,238,1394.5,2069.75,1633.75,37.53,39.53
3.5,1977,776.125,1429.875,1749.75,1807.5,2471.25,238,1394.625,2069.75,1633.625,37.53,39.56
3.6,1977.125,776.25,1430,1749.875,1807.25,2471,238,1394.75,2069.875,1633.5,37.5,39.53
3.7,1977.25,776.25,1430,1750,1807,2470.75,238.125,1394.875,2069.75,1633.375,37.53,39.54
3.8,1977.375,776.375,1430,1750,1806.75,2470.5,238.125,1395,2069.75,1633.125,37.53,39.47
3.9,1977.5,776.375,1430.125,1750,1806.5,2470.25,238.125,1395,2069.75,1633,37.54,39.5
4.0,1977.625,776.375,1430.125,1750,1806.25,2469.875,238.125,1395.125,2069.625,1632.75,37.53,39.44
4.1,1977.625,776.5,1430.125,1750,1806,2469.75,238.25,1395.125,2069.625,1632.5,37.51,39.48
4.2,1977.75,776.625,1430.125,1750.125,1805.75,2469.5,238,1395.25,2069.625,1632.375,37.54,39.41
4.3,1977.875,776.75,1430.125,1750,1805.5,2469.125,238.125,1395.25,2069.5,1632.125,37.53,39.41
4.4,1978,776.75,1430.125,1750,1805.25,2468.875,238.125,1395.25,2069.5,1631.875,37.53,39.37
4.5,1978,776.75,1430.125,1750,1805,2468.625,238.125,1395.375,2069.5,1631.625,37.53,39.42
4.6,1978.125,776.75,1430.125,1750,1804.75,2468.375,238.375,1395.375,2069.375,1631.375,37.53,39.38
4.7,1978.25,776.875,1430.125,1750,1804.5,2468.125,238.125,1395.5,2069.25,1631.125,37.56,39.32
4.8,1978.375,777,1430.25,1749.875,1804.25,2467.875,238.25,1395.375,2069.25,1630.875,37.53,39.31
4.9,1978.375,777,1430.25,1749.875,1803.875,2467.625,238.125,1395.375,2069.125,1630.5,37.53,39.31
5.0,1978.375,777,1430.25,1749.75,1803.75,2467.375,238.25,1395.5,2069.125,1630.25,37.53,39.29
5.1,1978.5,777.125,1430.25,1749.625,1803.375,2467.125,238.125,1395.375,2069,1630,37.53,39.28
5.2,1978.625,777.125,1430.25,1749.5,1803.125,2466.75,238.25,1395.375,2068.875,1629.625,37.53,39.23
5.3,1978.75,777.25,1430.25,1749.375,1802.875,2466.625,237.875,1395.25,2068.875,1629.375,37.54,39.25
5.4,1978.75,777.375,1430.25,1749.25,1802.625,2466.375,237.875,1395.25,2068.75,1629,37.54,39.22
5.5,1978.875,777.375,1430.25,1749.125,1802.25,2466.125,238,1395.25,2068.75,1628.75,37.53,39.17
5.6,1978.875,777.5,1430.25,1749,1802.125,2465.875,238,1395.125,2068.625,1628.375,37.53,39.11
5.7,1979,777.5,1430.25,1748.875,1801.75,2465.625,238.125,1395.125,2068.5,1628.125,37.53,39.13
5.8,1979,777.625,1430.25,1748.625,1801.5,2465.375,238.125,1395,2068.375,1627.75,37.51,39.11
5.9,1979.125,777.625,1430.25,1748.5,1801.375,2465.125,238.125,1395,2068.25,1627.5,37.54,39.06
6.0,1979.125,777.75,1430.375,1748.375,1801,2465,238,1394.875,2068.25,1627.125,37.54,39.16
6.1,1979.25,777.75,1430.375,1748.25,1800.75,2464.625,238.125,1394.75,2068,1626.75,37.53,39.11
6.2,1979.25,777.875,1430.375,1748,1800.5,2464.5,238,1394.625,2068,1626.375,37.51,39.08
6.3,1979.375,777.875,1430.375,1747.75,1800.25,2464.25,238.125,1394.5,2067.875,1626,37.54,38.98
6.4,1979.375,778,1430.375,1747.625,1800,2464,238.125,1394.375,2067.625,1625.625,37.54,39.03
6.5,1979.5,778.125,1430.375,1747.375,1799.75,2463.75,238,1394.25,2067.5,1625.25,37.54,39
6.6,1979.5,778.125,1430.5,1747.125,1799.5,2463.5,238,1394.125,2067.375,1624.875,37.53,38.98
6.7,1979.625,778.125,1430.5,1746.875,1799.375,2463.375,238.125,1394,2067.25,1624.5,37.51,38.93
6.8,1979.625,778.25,1430.375,1746.75,1799.125,2463.125,238,1393.875,2067.125,1624.125,37.54,38.89
6.9,1979.625,778.25,1430.375,1746.375,1798.75,2463,237.875,1393.75,2067,1623.625,37.53,38.94
7.0,1979.75,778.375,1430.375,1746.125,1798.625,2462.625,238,1393.625,2066.875,1623.25,37.53,38.89
7.1,1979.75,778.375,1430.5,1745.875,1798.375,2462.5,237.875,1393.5,2066.75,1623,37.51,38.92
7.2,1979.75,778.375,1430.5,1745.75,1798.125,2462.25,237.875,1393.375,2066.5,1622.5,37.56,38.85
7.3,1979.875,778.5,1430.5,1745.5,1797.875,2462.125,238,1393.25,2066.5,1622.125,37.51,38.89
7.4,1979.875,778.625,1430.5,1745.25,1797.625,2461.875,238,1393,2066.25,1621.75,37.54,38.83
7.5,1979.875,778.625,1430.5,1744.875,1797.375,2461.75,238,1392.875,2066.125,1621.375,37.54,38.81
7.6,1979.875,778.75,1430.5,1744.625,1797.125,2461.5,238,1392.75,2065.875,1621,37.54,38.83
7.7,1980,778.625,1430.5,1744.25,1796.875,2461.375,238.125,1392.5,2065.75,1620.5,37.54,38.76
7.8,1980,778.75,1430.5,1744,1796.75,2461.125,238,1392.375,2065.5,1620.125,37.54,38.77
7.9,1980,778.75,1430.625,1743.75,1796.5,2461,238.125,1392.125,2065.375,1619.75,37.53,38.7
8.0,1980,778.75,1430.5,1743.375,1796.375,2460.875,238.25,1392,2065.25,1619.375,37.53,38.73
8.1,1980.125,778.875,1430.625,1743.125,1796.125,2460.625,238,1391.75,2065.125,1619,37.53,38.64
8.2,1980.125,779,1430.5,1742.75,1795.875,2460.5,238.125,1391.625,2065,1618.625,37.54,38.64
8.3,1980.125,779,1430.625,1742.5,1795.625,2460.25,238,1391.5,2064.75,1618.125,37.53,38.68
8.4,1980.125,779.125,1430.625,1742.125,1795.375,2460.25,238.25,1391.125,2064.625,1617.75,37.53,38.68
8.5,1980.125,779.125,1430.625,1741.75,1795.125,2460,238,1391,2064.375,1617.375,37.51,38.64
8.6,1980.125,779.125,1430.625,1741.5,1795,2459.875,238,1390.875,2064.25,1616.875,37.53,38.6
8.7,1980.125,779.25,1430.625,1741.125,1794.75,2459.75,238.125,1390.625,2064.125,1616.5,37.51,38.6
8.8,1980.125,779.25,1430.625,1740.875,1794.625,2459.5,238.125,1390.375,2063.875,1616,37.54,38.57
8.9,1980.125,779.25,1430.625,1740.625,1794.375,2459.375,238.25,1390.25,2063.75,1615.625,37.54,38.6
9.0,1980.25,779.25,1430.625,1740.125,1794.25,2459.25,238,1390,2063.625,1615.25,37.53,38.6
9.1,1980.25,779.375,1430.625,1739.875,1794,2459,238,1389.75,2063.375,1614.875,37.53,38.49
9.2,1980.25,779.375,1430.625,1739.5,1793.75,2459,238.125,1389.625,2063.25,1614.375,37.56,38.5
9.3,1980.25,779.375,1430.75,1739.125,1793.625,2458.75,238,1389.375,2063,1614,37.53,38.46
9.4,1980.25,779.5,1430.75,1738.875,1793.375,2458.625,238,1389.125,2062.875,1613.5,37.54,38.46
9.5,1980.25,779.5,1430.75,1738.5,1793.25,2458.5,238,1388.875,2062.625,1613.125,37.56,38.52
9.6,1980.25,779.5,1430.75,1738.125,1793,2458.375,238.125,1388.625,2062.5,1612.625,37.53,38.48
9.7,1980.25,779.625,1430.75,1737.75,1792.875,2458.25,238,1388.5,2062.25,1612.25,37.53,38.43
9.8,1980.25,779.625,1430.75,1737.375,1792.625,2458.125,238,1388.25,2062.125,1611.875,37.53,38.42
9.9,1980.25,779.75,1430.75,1737,1792.5,2457.875,238,1388,2061.875,1611.375,37.54,38.41
10.0,1980.25,779.625,1430.625,1736.625,1792.25,2457.75,238,1387.75,2062,1611,37.56,38.39
10.1,1980.25,779.625,1430.625,1736.125,1792.125,2457.5,238.125,1387.5,2061.875,1610.625,37.54,38.39
10.2,1980.25,779.75,1430.625,1735.75,1791.875,2457.375,238,1387.25,2061.75,1610.25,37.53,38.36
10.3,1980.125,779.625,1430.5,1735.25,1791.625,2457.25,238,1387,2061.625,1609.875,37.53,38.34
10.4,1980.125,779.75,1430.5,1734.875,1791.625,2457,237.875,1386.75,2061.5,1609.625,37.53,38.34
10.5,1980.125,779.75,1430.375,1734.5,1791.375,2456.875,237.875,1386.5,2061.375,1609.5,37.53,38.34
10.6,1980.125,779.75,1430.5,1734.125,1791.125,2456.75,237.875,1386.25,2061.25,1609.5,37.56,38.35
10.7,1980.125,779.875,1430.375,1733.625,1791.125,2456.625,237.875,1386,2061.25,1610.375,37.53,38.33
10.8,1980.25,779.875,1430.375,1733.375,1791.125,2456.625,238,1385.75,2061.125,1612.75,37.54,38.29
10.9,1980.5,779.875,1430.375,1733,1791.375,2456.75,238,1385.625,2061.125,1617.875,37.53,38.29
11.0,1980.875,779.875,1430.375,1733.125,1792,2457.25,238,1385.625,2061.375,1627.125,37.53,38.27
11.1,1981.625,779.875,1430.25,1733.625,1793.25,2458,238.125,1386.25,2062.125,1641.625,37.54,38.26
11.2,1982.75,780,1430.25,1735.625,1795.5,2460,238.375,1387.75,2064.125,1662.625,37.53,38.21
11.3,1984.5,780,1430.25,1739.5,1799,2463.125,238.25,1390.875,2068.375,1690.875,37.53,38.23
11.4,1986.75,780.125,1430.25,1746.25,1803.875,2467.625,238.625,1396.625,2075.75,1727.375,37.56,38.26
11.5,1989.625,780.25,1430.25,1756.5,1810.25,2473.75,238.75,1406,2087.75,1775,37.54,38.21
11.6,1993.375,780.375,1430.25,1770.875,1818.125,2481.375,238.875,1420,2105.125,1835.25,37.54,38.21
11.7,1997.875,780.625,1430.25,1790,1827.5,2490.125,239.375,1439.75,2127.875,1907.25,37.53,38.23
11.8,2003.375,780.875,1430.25,1814.375,1838.375,2500.5,239.375,1466.625,2156.375,1991.75,37.54,38.23
11.9,2009.625,781.25,1430.25,1844.375,1850.625,2512.125,240,1501.75,2190.25,2087.75,37.51,38.15
12.0,2016.875,781.625,1430.25,1880.125,1864.125,2525,240.25,1545.875,2229.125,2191.75,37.54,38.2
12.1,2025.125,782.125,1430.125,1922.25,1879.25,2539.125,240.5,1600.625,2273.625,2301.875,37.53,38.25
12.2,2034.25,782.625,1430.125,1970.375,1896,2554.5,241,1665.625,2322.875,2413.5,37.54,38.21
12.3,2044.125,783.25,1430.125,2023.625,1914.125,2570.75,241.25,1740,2375.25,2523.625,37.56,38.24
12.4,2055,783.875,1430.25,2082.625,1934,2588,241.75,1825.125,2430.75,2632.875,37.54,38.26
12.5,2066.625,784.375,1430.125,2145.375,1955,2605.75,242,1918.75,2487.375,2737.5,37.53,38.25
12.6,2079.25,785.25,1430.125,2212.25,1977.5,2624.375,242.5,2021.875,2545.5,2837.25,37.54,38.29
12.7,2092.75,786,1430.125,2281.625,2001.25,2643.5,243,2132.5,2604,2929.75,37.53,38.3
12.8,2106.875,786.875,1430.25,2351.5,2025.875,2662.875,243.25,2247,2661.75,3013.375,37.54,38.32
12.9,2121.875,787.625,1430.125,2422.375,2051.75,2682.5,243.625,2366.125,2719.375,3090.375,37.53,38.33
13.0,2137.75,788.5,1430.25,2492.5,2078.5,2702.375,243.875,2486.625,2776,3160.625,37.54,38.32
13.1,2154,789.375,1430.25,2560,2105.875,2722.125,244.25,2604.625,2830.625,3223.125,37.51,38.36
13.2,2171.125,790.5,1430.25,2625.5,2134.25,2742,244.75,2720,2884.125,3279.625,37.54,38.39
13.3,2188.75,791.5,1430.25,2687.75,2163.125,2761.75,245,2829.875,2935.5,3329.375,37.54,38.45
13.4,2207,792.5,1430.25,2745.75,2192,2781,245.5,2931.75,2984.375,3373,37.54,38.45
13.5,2225.875,793.5,1430.375,2800.625,2221.375,2800.125,246,3027.125,3031.375,3412.5,37.54,38.46
13.6,2245.25,794.75,1430.25,2851.625,2250.75,2818.875,246.375,3114.25,3075.875,3448.625,37.56,38.51
13.7,2264.875,795.75,1430.375,2898.125,2280,2836.875,246.625,3192.375,3117.625,3481.5,37.54,38.54
13.8,2285.25,797,1430.375,2941.375,2309.125,2854.625,246.75,3263.125,3157.5,3512.125,37.54,38.57
13.9,2305.875,798.125,1430.375,2981.125,2337.75,2871.75,247.25,3326.125,3195.125,3539.875,37.54,38.58
14.0,2326.75,799.375,1430.375,3017.25,2365.75,2888.25,247.625,3381.75,3230.25,3564.75,37.56,38.58
14.1,2348.25,800.5,1430.375,3050.625,2393.5,2904.125,247.875,3431.625,3263.75,3587.5,37.56,38.67
14.2,2369.875,801.875,1430.5,3081.125,2420.5,2919.5,248.125,3476,3295.125,3608.125,37.56,38.67
14.3,2391.5,803,1430.5,3108.875,2446.375,2934,248.375,3514.875,3324.375,3626.75,37.54,38.72
14.4,2413.5,804.375,1430.5,3134.5,2471.75,2948.125,248.75,3550,3352.25,3643.75,37.56,38.76
14.5,2435.75,805.75,1430.625,3157.875,2496.125,2961.625,249,3581.125,3378.5,3659.5,37.54,38.76
14.6,2457.75,807.125,1430.625,3179.125,2519.375,2974.375,249.25,3608.625,3402.75,3674.125,37.54,38.83
14.7,2480.125,808.5,1430.625,3198.875,2542,2986.625,249.625,3633.625,3425.875,3687.75,37.56,38.85
14.8,2502.625,809.875,1430.625,3216.875,2563.5,2998.25,249.75,3656,3447.625,3700.5,37.54,38.88
14.9,2524.75,811.375,1430.75,3233.375,2584,3009.25,250.25,3675.875,3467.875,3712.25,37.54,38.94
15.0,2547.125,812.75,1430.75,3248.75,2603.625,3019.625,250.375,3693.875,3487,3723.25,37.56,38.97
15.1,2569.375,814.25,1430.75,3262.75,2622.375,3029.5,250.625,3710.125,3505.125,3733.5,37.54,39
15.2,2591.5,815.75,1430.875,3275.75,2640.125,3038.75,251,3724.625,3522,3743,37.54,39
15.3,2613.5,817.25,1430.875,3287.75,2656.875,3047.625,251.25,3737.875,3537.875,3751.875,37.56,39.07
15.4,2635.5,818.75,1430.875,3299,2673,3056,251.5,3750,3552.875,3760.375,37.56,39.13
15.5,2657,820.25,1431,3309.125,2687.875,3063.75,251.75,3760.875,3566.875,3768.125,37.56,39.1
15.6,2678.5,821.875,1431,3318.75,2702.125,3071.125,251.75,3770.75,3580.25,3775.375,37.56,39.15
15.7,2699.5,823.375,1431.125,3327.625,2715.5,3077.875,252,3779.75,3592.625,3782,37.53,39.15
15.8,2720.625,825,1431.125,3335.875,2728.125,3084.5,252.375,3787.875,3604.375,3788.375,37.56,39.21
15.9,2741.375,826.5,1431.25,3343.5,2740.125,3090.5,252.75,3795.375,3615.375,3794.25,37.54,39.17
16.0,2761.75,828.25,1431.25,3350.625,2751.25,3096,252.75,3802.125,3625.75,3799.75,37.54,39.2
16.1,2781.875,829.875,1431.25,3357.375,2761.75,3101.375,253.125,3808.5,3635.625,3804.75,37.54,39.29
16.2,2801.75,831.5,1431.25,3363.5,2771.625,3106.25,253.125,3814.125,3644.75,3809.5,37.56,39.25
16.3,2821.125,833,1431.25,3369.25,2780.75,3110.875,253.5,3819.25,3653.5,3813.875,37.56,39.28
16.4,2840.375,834.75,1431.375,3374.625,2789.375,3115,253.625,3824,3661.75,3817.75,37.54,39.31
16.5,2859.25,836.375,1431.5,3379.5,2797.375,3119,253.875,3828.375,3669.375,3821.375,37.56,39.37
16.6,2877.5,838.125,1431.5,3384.125,2804.75,3122.625,254.125,3832.25,3676.625,3824.75,37.54,39.4
16.7,2895.75,839.75,1431.625,3388.375,2811.875,3125.875,254.375,3836,3683.5,3828,37.57,39.39
16.8,2913.5,841.5,1431.5,3392.375,2818.25,3129,254.5,3839.25,3690,3831.125,37.57,39.41
16.9,2930.625,843.125,1431.625,3396,2824.125,3131.75,254.75,3842.375,3696,3833.875,37.54,39.41
17.0,2947.625,844.875,1431.625,3399.5,2829.75,3134.5,254.875,3845.25,3701.75,3836.5,37.54,39.47
17.1,2964.25,846.5,1431.75,3402.625,2834.75,3136.75,255,3847.875,3707.25,3839,37.54,39.49
17.2,2980.25,848.25,1431.75,3405.625,2839.375,3139,255.25,3850.25,3712.25,3841.125,37.54,39.47
17.3,2996.125,849.875,1431.75,3408.25,2843.75,3140.875,255.375,3852.375,3717.125,3843.25,37.57,39.55
17.4,3011.5,851.625,1431.875,3410.75,2847.625,3142.625,255.625,3854.375,3721.625,3845.125,37.54,39.53
17.5,3026.375,853.375,1432,3413,2851,3144.25,255.75,3856.25,3725.875,3846.875,37.54,39.5
17.6,3041,855.125,1432,3415.125,2854.25,3145.5,256,3858,3730,3848.625,37.54,39.58
17.7,3055.25,856.875,1432,3417,2857,3146.75,256,3859.375,3733.875,3850.125,37.53,39.6
17.8,3069,858.625,1432.125,3418.75,2859.5,3147.75,256.125,3860.875,3737.5,3851.625,37.54,39.6
17.9,3082.375,860.25,1432.125,3420.375,2861.75,3148.625,256.5,3862.125,3740.875,3852.875,37.54,39.62
18.0,3095.5,862,1432.125,3421.75,2863.875,3149.375,256.625,3863.25,3744.125,3854.125,37.51,39.6
18.1,3108,863.75,1432.25,3423,2865.5,3149.875,257,3864.25,3747.125,3855.25,37.54,39.65
18.2,3120.375,865.625,1432.25,3424.125,2866.875,3150.375,257,3865.25,3750,3856.25,37.56,39.65
18.3,3132.25,867.375,1432.375,3425.125,2868.125,3150.625,257.125,3866.125,3752.75,3857.125,37.56,39.62
18.4,3143.75,869,1432.5,3426,2869.125,3150.75,257.125,3866.875,3755.25,3857.875,37.54,39.72
18.5,3154.875,870.75,1432.5,3426.75,2869.75,3150.875,257.125,3867.625,3757.625,3858.625,37.54,39.71
18.6,3165.75,872.625,1432.5,3427.375,2870.375,3150.875,257.5,3868.125,3760,3859.375,37.56,39.65
18.7,3176.125,874.375,1432.625,3427.875,2870.5,3150.625,257.5,3868.625,3762,3860,37.54,39.69
18.8,3186.25,876,1432.75,3428.25,2870.625,3150.375,257.75,3869.125,3764,3860.5,37.56,39.66
18.9,3196,877.75,1432.75,3428.5,2870.375,3149.875,257.875,3869.5,3766,3861,37.54,39.74
19.0,3205.5,879.5,1432.75,3428.75,2870,3149.5,258,3869.875,3767.75,3861.375,37.54,39.78
19.1,3214.5,881.25,1432.75,3428.875,2869.375,3148.875,258.25,3870.125,3769.375,3861.75,37.57,39.74
19.2,3223.25,883,1432.875,3429,2868.625,3148.25,258.375,3870.25,3771,3862,37.54,39.75
19.3,3231.875,884.75,1432.875,3429,2867.75,3147.5,258.375,3870.5,3772.5,3862.125,37.58,39.74
19.4,3240,886.5,1433,3428.875,2866.625,3146.625,258.625,3870.5,3773.875,3862.375,37.57,39.79
19.5,3247.875,888.25,1433,3428.75,2865.375,3145.875,258.5,3870.5,3775.125,3862.375,37.57,39.77
19.6,3255.5,890,1433.125,3428.375,2864.125,3144.875,258.625,3870.5,3776.25,3862.5,37.57,39.75
19.7,3262.875,891.625,1433.125,3428,2862.75,3143.875,258.625,3870.5,3777.375,3862.5,37.56,39.72
19.8,3269.875,893.375,1433.125,3427.75,2861.25,3142.875,258.875,3870.5,3778.375,3862.5,37.54,39.77
19.9,3276.625,895,1433.25,3427.25,2859.625,3141.75,258.875,3870.25,3779.25,3862.375,37.56,39.78
20.0,3283.25,896.75,1433.25,3426.75,2857.875,3140.5,259.25,3870.125,3780.125,3862.125,37.56,39.78
20.1,3289.375,898.5,1433.25,3426.125,2856.125,3139.25,259.125,3869.875,3780.875,3861.875,37.54,39.72
20.2,3295.5,900.125,1433.375,3425.5,2854.25,3137.875,259.375,3869.625,3781.625,3861.625,37.54,39.77
20.3,3301.25,901.75,1433.5,3424.75,2852.125,3136.625,259.25,3869.375,3782.25,3861.25,37.56,39.83
20.4,3306.75,903.5,1433.5,3424,2850,3135.125,259.625,3869.125,3782.875,3860.875,37.54,39.8
20.5,3312,905.125,1433.5,3423.125,2847.625,3133.625,259.625,3868.625,3783.375,3860.5,37.54,39.78
20.6,3317.25,906.875,1433.5,3422.25,2845.25,3132.125,259.5,3868.25,3783.875,3860,37.56,39.78
20.7,3322,908.5,1433.625,3421.375,2842.875,3130.5,259.75,3867.875,3784.25,3859.375,37.56,39.77
20.8,3326.75,910.125,1433.625,3420.375,2840.125,3128.875,259.75,3867.5,3784.625,3858.875,37.56,39.78
20.9,3331.25,911.75,1433.75,3419.375,2837.5,3127.25,259.875,3867,3785,3858.375,37.54,39.77
21.0,3335.5,913.375,1433.75,3418.375,2834.875,3125.5,259.75,3866.5,3785.25,3857.875,37.56,39.75
21.1,3339.5,915,1433.875,3417.375,2832.25,3123.75,260.125,3866,3785.375,3857.25,37.56,39.75
