time(s),F1,F2,F3,F4,F5,F6,F7,F8,F9,F10,Temp,Humid
0.0,2047.25,795.375,1495.375,1816.875,1855.125,2498,262.125,1451,2107.25,1663.5,37.89,43.06
0.1,2047.375,795.375,1495.375,1817.125,1855.125,2498.25,262.375,1451.375,2107.375,1663.625,37.92,43.07
0.2,2047.5,795.375,1495.375,1817.375,1855.125,2498.5,262.625,1451.625,2107.625,1663.75,37.89,43.08
0.3,2047.625,795.375,1495.375,1817.625,1855.125,2498.625,262.625,1452,2107.75,1663.75,37.91,43.09
0.4,2047.75,795.375,1495.375,1817.875,1855.125,2498.875,262.625,1452.25,2107.875,1663.875,37.92,43.12
0.5,2047.875,795.5,1495.375,1818.125,1855,2499,262.625,1452.625,2108,1664,37.92,43.08
0.6,2048,795.375,1495.5,1818.375,1855,2499.125,262.625,1452.875,2108.125,1664.125,37.91,43.06
0.7,2048.125,795.5,1495.375,1818.5,1854.875,2499.25,262.75,1453.125,2108.25,1664,37.92,43.09
0.8,2048.25,795.5,1495.375,1818.75,1854.875,2499.375,262.75,1453.375,2108.375,1664.125,37.92,43.08
0.9,2048.375,795.5,1495.5,1818.875,1854.75,2499.5,262.75,1453.625,2108.625,1664.25,37.94,43.13
1.0,2048.5,795.5,1495.5,1819.125,1854.75,2499.625,262.75,1453.875,2108.75,1664.25,37.92,43.11
1.1,2048.625,795.625,1495.5,1819.375,1854.75,2499.75,263,1454.125,2108.875,1664.25,37.92,43.05
1.2,2048.625,795.625,1495.5,1819.5,1854.625,2499.875,262.875,1454.375,2109,1664.375,37.94,43.08
1.3,2048.75,795.625,1495.5,1819.625,1854.625,2500,262.75,1454.625,2109,1664.25,37.94,43.04
1.4,2048.875,795.75,1495.5,1819.875,1854.5,2500,263,1454.875,2109.125,1664.375,37.91,42.99
1.5,2049.125,795.625,1495.5,1820,1854.375,2500.25,262.875,1455,2109.25,1664.375,37.94,43.04
1.6,2049.125,795.75,1495.5,1820.125,1854.375,2500.25,263.125,1455.25,2109.375,1664.375,37.91,43.09
1.7,2049.25,795.75,1495.5,1820.25,1854.25,2500.25,263.125,1455.625,2109.5,1664.375,37.94,43.04
1.8,2049.375,795.875,1495.5,1820.375,1854.25,2500.5,263,1455.75,2109.625,1664.375,37.92,43.02
1.9,2049.5,795.75,1495.5,1820.5,1854.125,2500.5,263.125,1455.875,2109.625,1664.375,37.91,43.03
2.0,2049.625,795.75,1495.5,1820.625,1854,2500.5,263,1456.125,2109.75,1664.375,37.92,43.05
2.1,2049.75,795.875,1495.5,1820.75,1854,2500.5,263.125,1456.375,2109.875,1664.375,37.95,43.04
2.2,2049.75,796,1495.5,1820.875,1853.875,2500.625,263.25,1456.5,2109.875,1664.375,37.94,43.02
2.3,2049.875,795.875,1495.625,1821,1853.875,2500.625,263.375,1456.75,2110,1664.375,37.92,43
2.4,2050,795.875,1495.625,1821.125,1853.625,2500.75,263.375,1456.875,2110,1664.25,37.94,43.02
2.5,2050,796,1495.625,1821.25,1853.625,2500.625,263.375,1457,2110.125,1664.25,37.92,42.99
2.6,2050.125,796,1495.625,1821.25,1853.5,2500.75,263.375,1457.125,2110.25,1664.25,37.91,42.99
2.7,2050.25,796,1495.625,1821.375,1853.375,2500.75,263.375,1457.25,2110.375,1664.125,37.94,42.99
2.8,2050.375,796.125,1495.5,1821.375,1853.25,2500.75,263.375,1457.5,2110.375,1664.125,37.94,42.96
2.9,2050.375,796,1495.625,1821.5,1853.125,2500.75,263.625,1457.625,2110.5,1664.125,37.94,42.95
3.0,2050.5,796.125,1495.625,1821.5,1853.125,2500.75,263.625,1457.75,2110.5,1664,37.94,42.95
3.1,2050.625,796.125,1495.625,1821.625,1853,2500.75,263.625,1457.875,2110.625,1663.875,37.92,42.99
3.2,2050.625,796.25,1495.625,1821.625,1852.875,2500.75,263.625,1458,2110.625,1663.875,37.94,42.98
3.3,2050.75,796.25,1495.625,1821.75,1852.75,2500.875,263.5,1458.125,2110.625,1663.75,37.94,42.98
3.4,2050.875,796.125,1495.625,1821.625,1852.625,2500.875,263.75,1458.25,2110.75,1663.75,37.94,42.94
3.5,2050.875,796.25,1495.75,1821.75,1852.5,2500.875,263.75,1458.375,2110.75,1663.625,37.94,42.96
3.6,2051,796.25,1495.625,1821.75,1852.375,2500.875,263.625,1458.5,2110.875,1663.625,37.96,42.97
3.7,2051.125,796.375,1495.625,1821.75,1852.375,2500.875,263.625,1458.625,2110.875,1663.5,37.94,42.89
3.8,2051.25,796.375,1495.75,1821.75,1852.25,2500.875,263.625,1458.625,2110.875,1663.375,37.94,42.92
3.9,2051.25,796.375,1495.625,1821.875,1852.125,2500.875,263.625,1458.75,2111,1663.25,37.94,42.89
4.0,2051.375,796.375,1495.625,1821.875,1852,2500.875,263.75,1458.875,2111,1663.25,37.96,42.88
4.1,2051.375,796.375,1495.625,1821.875,1851.875,2500.875,263.875,1458.875,2111,1663,37.95,42.85
4.2,2051.5,796.5,1495.75,1821.75,1851.75,2500.875,263.875,1459,2111,1663,37.92,42.81
4.3,2051.625,796.5,1495.75,1821.75,1851.625,2500.75,263.625,1459,2111.125,1662.875,37.95,42.82
4.4,2051.625,796.5,1495.75,1821.75,1851.5,2500.875,263.875,1459.125,2111,1662.75,37.94,42.78
4.5,2051.625,796.5,1495.625,1821.75,1851.5,2500.875,264.125,1459.125,2111.125,1662.625,37.95,42.88
4.6,2051.75,796.625,1495.75,1821.625,1851.25,2500.875,264,1459.25,2111.125,1662.5,37.95,42.79
4.7,2051.875,796.625,1495.75,1821.625,1851.125,2500.875,263.875,1459.25,2111.125,1662.375,37.94,42.76
4.8,2051.875,796.625,1495.75,1821.625,1851,2500.875,264.125,1459.375,2111.125,1662.25,37.95,42.82
4.9,2052,796.625,1495.75,1821.5,1850.875,2500.875,264.125,1459.375,2111.125,1662.125,37.94,42.8
5.0,2052,796.625,1495.75,1821.5,1850.75,2500.75,264.375,1459.375,2111.25,1662,37.94,42.71
5.1,2052.125,796.75,1495.75,1821.375,1850.75,2500.75,264,1459.375,2111.125,1661.75,37.94,42.78
5.2,2052.125,796.75,1495.75,1821.375,1850.625,2500.75,264,1459.5,2111.125,1661.625,37.95,42.76
5.3,2052.125,796.75,1495.75,1821.25,1850.5,2500.625,264.125,1459.375,2111.125,1661.5,37.95,42.73
5.4,2052.25,796.75,1495.75,1821.25,1850.375,2500.625,264,1459.5,2111.125,1661.375,37.94,42.69
5.5,2052.25,796.875,1495.75,1821.125,1850.25,2500.625,264.25,1459.5,2111.125,1661.25,37.92,42.74
5.6,2052.25,796.875,1495.75,1821,1850.125,2500.625,264.125,1459.5,2111.125,1661,37.94,42.69
5.7,2052.375,796.75,1495.75,1820.875,1850,2500.625,264,1459.5,2111.125,1660.875,37.95,42.74
5.8,2052.375,796.875,1495.75,1820.875,1849.875,2500.625,264.125,1459.5,2111.125,1660.625,37.95,42.71
5.9,2052.5,796.875,1495.75,1820.75,1849.75,2500.5,264,1459.5,2111,1660.5,37.95,42.65
6.0,2052.5,796.875,1495.75,1820.625,1849.625,2500.5,264.25,1459.5,2111,1660.25,37.94,42.68
6.1,2052.5,796.875,1495.75,1820.5,1849.5,2500.5,264.125,1459.375,2111,1660.125,37.92,42.67
6.2,2052.5,797,1495.75,1820.375,1849.375,2500.375,264.25,1459.375,2110.875,1659.875,37.95,42.67
6.3,2052.625,797,1495.75,1820.25,1849.25,2500.375,264.375,1459.375,2110.875,1659.75,37.95,42.65
6.4,2052.625,797,1495.75,1820.125,1849.125,2500.375,264.375,1459.375,2110.875,1659.5,37.95,42.62
6.5,2052.75,797.125,1495.75,1820,1849,2500.25,264.375,1459.25,2110.75,1659.25,37.92,42.65
6.6,2052.75,797,1495.75,1819.875,1848.875,2500.25,264.375,1459.25,2110.75,1659.125,37.94,42.62
6.7,2052.75,797,1495.75,1819.75,1848.75,2500.125,264.25,1459.125,2110.75,1658.875,37.95,42.61
6.8,2052.875,797.125,1495.75,1819.5,1848.625,2500,264.375,1459.125,2110.625,1658.625,37.92,42.61
6.9,2052.875,797.125,1495.75,1819.375,1848.375,2500,264.125,1459.125,2110.625,1658.375,37.95,42.57
7.0,2052.875,797.25,1495.75,1819.25,1848.25,2500,264.375,1459,2110.5,1658.25,37.96,42.57
7.1,2052.875,797.25,1495.75,1819,1848.25,2499.875,264.375,1458.875,2110.5,1658,37.94,42.58
7.2,2052.875,797.25,1495.75,1818.875,1848,2499.75,264.375,1458.875,2110.375,1657.75,37.94,42.56
7.3,2052.875,797.25,1495.75,1818.75,1847.875,2499.625,264.5,1458.75,2110.375,1657.5,37.94,42.56
7.4,2053,797.25,1495.75,1818.5,1847.75,2499.625,264.5,1458.75,2110.25,1657.25,37.92,42.56
7.5,2053,797.25,1495.75,1818.375,1847.625,2499.5,264.375,1458.625,2110.25,1657,37.94,42.52
7.6,2053.125,797.25,1495.75,1818.125,1847.5,2499.375,264.5,1458.5,2110.125,1656.875,37.95,42.58
7.7,2053,797.25,1495.75,1818,1847.375,2498.625,264.375,1458.375,2110,1656.625,37.94,42.52
7.8,2053.125,797.375,1495.75,1817.75,1847.25,2497.625,264.125,1458.25,2110,1656.375,37.94,42.51
7.9,2053.125,797.375,1495.75,1817.625,1847.125,2496.375,263.875,1458.25,2109.875,1656.125,37.94,42.49
8.0,2053.125,797.375,1495.75,1817.375,1847,2495.25,263.625,1458.125,2109.75,1655.875,37.95,42.46
8.1,2053.125,797.5,1495.75,1817.125,1846.75,2494,263.375,1458,2109.75,1655.625,37.95,42.51
8.2,2053.125,797.5,1495.75,1817,1846.625,2492.75,263.375,1458,2109.625,1655.375,37.94,42.43
8.3,2053.125,797.5,1495.75,1816.75,1846.5,2491.625,263.125,1457.875,2109.625,1655.125,37.94,42.46
8.4,2053.125,797.5,1495.75,1816.5,1846.375,2490.5,262.875,1457.625,2109.5,1654.875,37.94,42.51
8.5,2053.25,797.5,1495.75,1816.375,1846.125,2490.125,262.75,1457.5,2109.375,1654.625,37.94,42.43
8.6,2053.25,797.5,1495.75,1816.125,1846.125,2490,262.875,1457.5,2109.25,1654.375,37.96,42.48
8.7,2053.25,797.625,1495.75,1815.875,1846,2490,262.875,1457.375,2109.25,1654.125,37.96,42.39
8.8,2053.25,797.625,1495.75,1815.625,1845.875,2490,262.75,1457.25,2109.125,1653.875,37.95,42.4
8.9,2053.25,797.625,1495.75,1815.5,1845.75,2490.125,262.875,1457.125,2109,1653.625,37.96,42.4
9.0,2053.25,797.75,1495.75,1815.25,1845.625,2490.125,262.875,1457,2108.875,1653.375,37.95,42.39
9.1,2053.25,797.75,1495.75,1815,1845.375,2490.25,262.875,1456.875,2108.75,1653.125,37.94,42.36
9.2,2053.25,797.625,1495.625,1814.75,1845.375,2490.375,262.875,1456.75,2108.625,1652.875,37.95,42.36
9.3,2053.25,797.75,1495.75,1814.625,1845.125,2490.375,263,1456.625,2108.5,1652.625,37.96,42.37
9.4,2053.25,797.75,1495.75,1814.375,1845,2490.375,263.25,1456.375,2108.375,1652.375,37.98,42.3
9.5,2053.25,797.75,1495.625,1814.125,1844.875,2490.5,263,1456.375,2108.25,1652,37.95,42.34
9.6,2053.25,797.875,1495.75,1813.75,1844.75,2490.5,263,1456.125,2108.25,1651.75,37.94,42.31
9.7,2053.25,797.875,1495.75,1813.625,1844.625,2490.625,262.875,1456,2108.125,1651.5,37.95,42.3
9.8,2053.25,797.875,1495.75,1813.375,1844.5,2490.75,263.125,1455.875,2108,1651.25,37.96,42.27
9.9,2053.25,797.875,1495.75,1813.125,1844.375,2490.75,263.125,1455.75,2107.875,1650.875,37.95,42.22
10.0,2053,797.75,1495.625,1812.75,1844.25,2490.625,263.125,1455.5,2107.625,1650.375,37.95,42.29
10.1,2052.875,797.75,1495.625,1812.5,1844,2489.875,262.875,1455.375,2107,1649.625,37.95,42.24
10.2,2052.5,797.5,1495.5,1812.125,1843.75,2489,262.75,1455.25,2106.125,1648.625,37.94,42.22
10.3,2052.25,797.375,1495.5,1811.875,1843.375,2487.875,262.75,1455.125,2104.875,1647.25,37.96,42.26
10.4,2051.875,797.125,1495.375,1811.5,1843.125,2486.75,262.5,1454.875,2103.625,1645.875,37.92,42.22
10.5,2051.875,797.125,1495.375,1811.25,1842.875,2485.75,262.375,1454.75,2102.625,1645.25,37.94,42.24
10.6,2051.875,797,1495.375,1811,1842.625,2484.625,262.25,1454.5,2102.125,1646.125,37.95,42.2
10.7,2051.75,797,1495.25,1810.75,1842.625,2483.75,262,1454.5,2101.5,1648.625,37.95,42.21
10.8,2052.125,797,1495.375,1810.625,1842.875,2482.875,261.75,1454.5,2101.375,1654,37.95,42.18
10.9,2052.625,797,1495.375,1810.875,1844,2482.5,261.75,1454.75,2101.625,1663.375,37.96,42.17
11.0,2053.5,797,1495.375,1811.875,1846.375,2482.75,261.625,1456,2102.875,1677.875,37.95,42.16
11.1,2054.875,797,1495.375,1814,1849.875,2484.125,261.875,1458.5,2105.625,1699.25,37.95,42.13
11.2,2056.75,797.125,1495.5,1818.125,1854.625,2486.75,261.625,1463.125,2111,1729.75,37.95,42.09
11.3,2059.5,797.25,1495.5,1824.75,1860.625,2490.875,261.625,1470.875,2120.25,1770.625,37.94,42.13
11.4,2062.625,797.375,1495.5,1834.125,1867.875,2496.375,261.75,1482.625,2134.375,1823,37.96,42.17
11.5,2066.875,797.625,1495.5,1847.375,1876.625,2503.75,261.75,1500.125,2154.375,1888.25,37.92,42.16
11.6,2071.75,797.875,1495.5,1864.625,1886.875,2512.75,261.875,1524.5,2180.375,1964.625,37.94,42.15
11.7,2077.375,798.25,1495.5,1886.75,1898.75,2523.375,262.25,1557.25,2212.75,2054.625,37.96,42.15
11.8,2084,798.625,1495.5,1914.25,1912.125,2535,262.375,1599,2250.875,2158.25,37.96,42.12
11.9,2091.375,799,1495.5,1947.125,1927.25,2547.875,262.75,1650,2293.125,2271,37.94,42.19
12.0,2099.625,799.5,1495.5,1985.75,1944.125,2562,262.875,1711.25,2340.25,2388.75,37.95,42.12
12.1,2108.875,800,1495.5,2029.875,1962.625,2577,263,1782.75,2390.5,2506,37.95,42.12
12.2,2119,800.5,1495.5,2078.75,1982.375,2592.875,263.375,1863.375,2442.625,2619.5,37.94,42.1
12.3,2130,801.125,1495.375,2132.75,2003.625,2609.5,263.5,1954.125,2497.125,2730.125,37.94,42.1
12.4,2141.875,801.75,1495.375,2190.875,2026.125,2626.875,263.875,2053.375,2552.375,2834.375,37.95,42.12
12.5,2154.5,802.5,1495.5,2251.875,2049.5,2644.875,264.125,2158.625,2607.875,2929.75,37.94,42.1
12.6,2168.125,803.375,1495.5,2316,2074.375,2663.375,264.5,2270.75,2664.125,3017.875,37.95,42.12
12.7,2182.5,804.25,1495.5,2381.875,2100.25,2682.375,264.75,2386.375,2720.375,3097.75,37.96,42.11
12.8,2197.375,805.125,1495.5,2447.625,2126.875,2701.5,264.75,2502.375,2775.375,3169.375,37.95,42.16
12.9,2213.125,806,1495.5,2513.75,2154.875,2721,265.125,2618.625,2829.75,3234.5,37.95,42.2
13.0,2229.5,806.875,1495.5,2578.625,2183.75,2740.625,265.5,2731.75,2882.75,3293.25,37.95,42.2
13.1,2246.375,808,1495.5,2641,2213,2760.25,265.75,2839.25,2933.5,3345.5,37.95,42.13
13.2,2264,809,1495.5,2701.25,2243.25,2779.75,266.125,2942,2982.625,3392.75,37.96,42.21
13.3,2282.25,810.125,1495.625,2758.5,2273.625,2799.25,266.25,3037.5,3029.625,3435.25,37.94,42.16
13.4,2300.75,811.25,1495.625,2812,2303.875,2818.25,266.375,3124.125,3073.875,3472.875,37.95,42.18
13.5,2320,812.375,1495.625,2862.625,2334.25,2837.25,266.75,3203.75,3116.375,3507.25,37.92,42.18
13.6,2339.625,813.5,1495.625,2909.875,2364.25,2856,266.875,3275.25,3156.625,3538.5,37.95,42.24
13.7,2359.5,814.625,1495.625,2953.25,2393.625,2874.125,267.125,3338.75,3194.5,3566.5,37.95,42.27
13.8,2380,815.875,1495.625,2994,2422.75,2891.875,267.5,3395.75,3230.75,3592.375,37.95,42.2
13.9,2400.625,817.125,1495.75,3031.5,2451.375,2909,267.75,3446.5,3265,3616.25,37.98,42.32
14.0,2421.5,818.5,1495.75,3065.625,2478.875,2925.5,267.875,3491.25,3297.125,3637.875,37.95,42.25
14.1,2442.75,819.625,1495.75,3097.375,2506.125,2941.5,268.125,3531.25,3327.5,3657.875,37.95,42.3
14.2,2464.25,821,1495.875,3126.5,2532.5,2956.875,268.375,3566.75,3356.375,3676.375,37.95,42.31
14.3,2485.625,822.25,1495.875,3153.125,2557.875,2971.625,268.375,3598,3383.25,3693.125,37.96,42.36
14.4,2507.375,823.625,1495.875,3177.75,2582.5,2985.875,268.875,3626.25,3408.625,3708.625,37.94,42.34
14.5,2529.375,825.125,1495.875,3200.25,2606.375,2999.625,269,3651.375,3432.5,3722.875,37.95,42.31
14.6,2551.125,826.5,1496,3220.875,2629,3012.5,269.125,3673.75,3454.75,3736,37.96,42.39
14.7,2573.125,828,1496,3240,2650.875,3025,269.5,3694,3475.875,3748,37.92,42.46
14.8,2595,829.375,1496,3257.5,2671.625,3036.625,269.625,3712,3495.375,3758.875,37.95,42.39
14.9,2617,830.875,1496,3273.75,2691.75,3048,270,3728.25,3514,3769.125,37.96,42.4
15.0,2639,832.375,1496.125,3288.875,2710.875,3058.625,270.125,3743,3531.5,3778.375,37.92,42.4
15.1,2660.625,833.875,1496.125,3302.625,2728.875,3068.625,270.25,3756.125,3547.75,3787,37.94,42.47
15.2,2682.5,835.5,1496.125,3315.5,2746.25,3078.25,270.375,3768.125,3563.25,3795.125,37.95,42.43
15.3,2704,837,1496.125,3327.5,2762.75,3087.375,270.75,3779.125,3577.625,3802.625,37.98,42.46
15.4,2725.375,838.5,1496.125,3338.5,2778.375,3095.875,270.75,3789,3591.125,3809.625,37.95,42.51
15.5,2746.625,840.125,1496.25,3348.875,2793.125,3104,271.125,3798,3604,3816,37.95,42.51
15.6,2767.75,841.625,1496.25,3358.5,2807.375,3111.75,271.125,3806.25,3616,3821.875,37.94,42.55
15.7,2788.375,843.375,1496.375,3367.375,2820.375,3119,271.25,3813.625,3627.25,3827.375,37.95,42.55
15.8,2809,845,1496.375,3375.75,2833,3125.75,271.625,3820.625,3638,3832.5,37.98,42.6
15.9,2829.25,846.75,1496.375,3383.625,2844.75,3132.25,271.625,3827,3648,3837.5,37.98,42.58
16.0,2849.125,848.25,1496.5,3390.75,2855.875,3138.25,271.75,3832.75,3657.5,3841.875,37.95,42.59
16.1,2868.875,850,1496.5,3397.5,2866.375,3144,272.125,3838,3666.375,3846.125,37.95,42.59
16.2,2888.25,851.625,1496.625,3403.875,2876.25,3149.375,272.125,3842.875,3674.75,3850.125,37.95,42.62
16.3,2907.25,853.375,1496.625,3409.75,2885.375,3154.375,272.375,3847.25,3682.625,3853.875,37.98,42.63
16.4,2925.875,855,1496.625,3415.25,2894.125,3159.125,272.625,3851.375,3690.125,3857.5,37.96,42.64
16.5,2944.375,856.75,1496.75,3420.5,2902.25,3163.5,272.5,3855.25,3697.25,3860.75,37.96,42.67
16.6,2962.25,858.375,1496.75,3425.25,2909.875,3167.625,272.875,3858.75,3703.875,3863.875,37.95,42.68
16.7,2979.875,860.125,1496.75,3429.75,2916.875,3171.5,273,3861.875,3710.125,3866.625,37.95,42.68
16.8,2997.125,862,1496.75,3434,2923.625,3175.125,273.25,3864.875,3716.125,3869.375,37.98,42.67
16.9,3013.875,863.625,1496.875,3437.875,2929.75,3178.5,273.375,3867.625,3721.75,3871.875,37.95,42.68
17.0,3030.375,865.5,1496.875,3441.625,2935.5,3181.625,273.5,3870.125,3727,3874.25,37.96,42.75
17.1,3046.5,867.125,1497,3445,2941,3184.625,273.875,3872.5,3732,3876.5,37.95,42.74
17.2,3062.125,869,1497,3448.25,2945.875,3187.25,273.875,3874.625,3736.75,3878.5,37.95,42.76
17.3,3077.5,870.625,1497,3451.25,2950.5,3189.875,274,3876.625,3741.25,3880.375,37.99,42.72
17.4,3092.375,872.5,1497,3454.125,2954.875,3192.125,274.125,3878.5,3745.5,3882.125,37.96,42.82
17.5,3106.75,874.25,1497.125,3456.75,2958.875,3194.25,274.25,3880.125,3749.375,3883.75,37.96,42.84
17.6,3121,876,1497.125,3459.125,2962.5,3196.25,274.375,3881.625,3753.25,3885.125,37.96,42.82
17.7,3134.75,877.75,1497.25,3461.375,2965.875,3198,274.5,3883.125,3756.75,3886.625,37.96,42.82
17.8,3148,879.5,1497.25,3463.375,2968.875,3199.5,274.625,3884.5,3760.125,3887.875,37.96,42.89
17.9,3161,881.5,1497.25,3465.375,2971.625,3201.125,274.75,3885.625,3763.375,3889.125,37.96,42.84
18.0,3173.625,883.25,1497.375,3467.125,2974.25,3202.375,275,3886.75,3766.375,3890.375,37.98,42.8
18.1,3185.875,885.125,1497.375,3468.75,2976.625,3203.5,275.25,3887.75,3769.25,3891.25,37.96,42.85
18.2,3197.75,887,1497.5,3470.125,2978.625,3204.5,275.375,3888.75,3772,3892.25,37.96,42.86
18.3,3209.25,888.75,1497.5,3471.625,2980.375,3205.5,275.375,3889.625,3774.5,3893.125,37.95,42.88
18.4,3220.375,890.5,1497.625,3472.875,2981.875,3206.125,275.5,3890.375,3776.875,3894,37.95,42.91
18.5,3231.25,892.5,1497.625,3474,2983.25,3206.875,275.625,3891.125,3779.125,3894.625,37.95,42.89
18.6,3241.625,894.25,1497.625,3474.875,2984.25,3207.375,275.75,3891.75,3781.375,3895.375,37.96,42.91
18.7,3251.75,896,1497.75,3475.75,2985.125,3207.875,275.875,3892.375,3783.375,3896,37.95,42.86
18.8,3261.5,897.875,1497.75,3476.625,2985.875,3208.25,276.125,3892.875,3785.25,3896.5,37.95,42.94
18.9,3270.875,899.75,1497.75,3477.25,2986.375,3208.5,275.875,3893.375,3787.125,3897,37.95,42.89
19.0,3280,901.625,1497.875,3478,2986.75,3208.625,276.5,3893.75,3788.875,3897.5,37.95,42.96
19.1,3288.75,903.375,1497.875,3478.5,2987,3208.75,276.375,3894.125,3790.375,3897.875,37.94,42.94
19.2,3297.125,905.375,1498,3479,2987.125,3208.75,276.375,3894.375,3792,3898.25,37.95,42.96
19.3,3305.375,907.25,1498,3479.25,2987.125,3208.625,276.375,3894.625,3793.375,3898.5,37.95,42.94
19.4,3313.375,909,1498.125,3479.625,2987,3208.5,276.625,3894.875,3794.75,3898.75,37.99,42.89
19.5,3320.875,910.75,1498.125,3479.75,2986.625,3208.25,276.625,3895,3796,3898.875,37.96,42.97
19.6,3328.125,912.5,1498.125,3480,2986.25,3207.875,276.75,3895.125,3797,3899.125,37.95,42.95
19.7,3335.25,914.5,1498.25,3480.125,2985.625,3207.375,276.875,3895.25,3798.25,3899.25,37.95,42.92
19.8,3342,916.25,1498.25,3480,2984.875,3206.875,277,3895.25,3799.25,3899.25,37.98,42.95
19.9,3348.5,918.125,1498.375,3480,2984,3206.125,277.125,3895.25,3800.125,3899.25,37.95,42.96
20.0,3354.75,919.875,1498.375,3479.875,2983.125,3205.5,277.125,3895.375,3801,3899.25,37.98,43.03
20.1,3360.75,921.75,1498.5,3479.75,2982,3204.75,277.125,3895.125,3801.75,3899.125,37.94,42.99
20.2,3366.5,923.5,1498.5,3479.5,2980.875,3204,277.125,3895.125,3802.5,3899.125,37.98,43
20.3,3372.125,925.375,1498.625,3479.125,2979.5,3203.125,277.375,3895,3803.125,3898.875,37.96,43
20.4,3377.375,927,1498.625,3478.875,2978.25,3202.25,277.5,3894.875,3803.75,3898.75,37.95,43.01
20.5,3382.375,928.75,1498.625,3478.375,2976.75,3201.375,277.625,3894.625,3804.375,3898.5,37.95,43
20.6,3387.25,930.625,1498.75,3478.125,2975.25,3200.375,277.625,3894.5,3804.875,3898.25,37.94,42.99
20.7,3391.875,932.375,1498.75,3477.5,2973.625,3199.25,277.375,3894.25,3805.375,3898,37.95,43
20.8,3396.375,934.125,1498.75,3477,2971.875,3198.125,277.625,3894,3805.75,3897.75,37.95,43.01
20.9,3400.75,936,1498.875,3476.375,2970.125,3196.875,277.75,3893.75,3806.125,3897.5,37.95,43.01
