time(s),F1,F2,F3,F4,F5,F6,F7,F8,F9,F10,Temp,Humid
0.0,-3.433749999999918,-1.4937499999999773,-0.5162499999999,-3.964999999999918,4.460000000000036,4.332499999999982,-0.5512500000000102,-5.962500000000091,-2.2637500000000728,1.7899999999999636,37.51,39.97
0.1,-3.308749999999918,-1.4937499999999773,-0.5162499999999,-3.714999999999918,4.460000000000036,4.332499999999982,-0.6762500000000102,-5.587500000000091,-2.1387500000000728,1.9149999999999636,37.53,39.93
0.2,-3.183749999999918,-1.3687499999999773,-0.39124999999989996,-3.464999999999918,4.460000000000036,4.332499999999982,-0.5512500000000102,-5.337500000000091,-1.8887500000000728,2.0399999999999636,37.53,40.02
0.3,-3.058749999999918,-1.3687499999999773,-0.39124999999989996,-3.214999999999918,4.460000000000036,4.207499999999982,-0.42625000000001023,-4.962500000000091,-1.8887500000000728,2.1649999999999636,37.54,39.96
0.4,-2.933749999999918,-1.3687499999999773,-0.39124999999989996,-2.964999999999918,4.335000000000036,4.207499999999982,-0.42625000000001023,-4.587500000000091,-1.6387500000000728,2.2899999999999636,37.54,39.91
0.5,-2.808749999999918,-1.2437499999999773,-0.39124999999989996,-2.714999999999918,4.335000000000036,4.082499999999982,-0.5512500000000102,-4.337500000000091,-1.5137500000000728,2.4149999999999636,37.54,39.94
0.6,-2.683749999999918,-1.3687499999999773,-0.26624999999989996,-2.464999999999918,4.335000000000036,3.957499999999982,-0.30125000000001023,-3.962500000000091,-1.3887500000000728,2.4149999999999636,37.56,39.99
0.7,-2.558749999999918,-1.2437499999999773,-0.26624999999989996,-2.214999999999918,4.210000000000036,3.957499999999982,-0.5512500000000102,-3.712500000000091,-1.3887500000000728,2.5399999999999636,37.54,39.9
0.8,-2.433749999999918,-1.2437499999999773,-0.26624999999989996,-1.9649999999999181,4.210000000000036,3.832499999999982,-0.30125000000001023,-3.337500000000091,-1.2637500000000728,2.6649999999999636,37.56,39.93
0.9,-2.433749999999918,-1.2437499999999773,-0.14124999999989996,-1.7149999999999181,4.085000000000036,3.832499999999982,-0.30125000000001023,-3.087500000000091,-1.0137500000000728,2.6649999999999636,37.56,39.87
1.0,-2.308749999999918,-1.1187499999999773,-0.14124999999989996,-1.4649999999999181,4.085000000000036,3.707499999999982,-0.30125000000001023,-2.837500000000091,-0.8887500000000728,2.7899999999999636,37.56,39.89
1.1,-2.058749999999918,-1.1187499999999773,-0.14124999999989996,-1.3399999999999181,4.085000000000036,3.707499999999982,-0.30125000000001023,-2.587500000000091,-0.7637500000000728,2.7899999999999636,37.56,39.86
1.2,-1.9337499999999181,-1.1187499999999773,-0.14124999999989996,-1.0899999999999181,3.9600000000000364,3.582499999999982,-0.17625000000001023,-2.337500000000091,-0.6387500000000728,2.9149999999999636,37.56,39.89
1.3,-1.9337499999999181,-0.9937499999999773,-0.14124999999989996,-0.8399999999999181,3.9600000000000364,3.582499999999982,-0.17625000000001023,-2.087500000000091,-0.5137500000000728,2.9149999999999636,37.56,39.9
1.4,-1.8087499999999181,-1.1187499999999773,-0.016249999999899956,-0.7149999999999181,3.8350000000000364,3.457499999999982,-0.05125000000001023,-1.837500000000091,-0.5137500000000728,3.0399999999999636,37.54,39.87
1.5,-1.6837499999999181,-0.9937499999999773,-0.016249999999899956,-0.5899999999999181,3.8350000000000364,3.457499999999982,-0.05125000000001023,-1.587500000000091,-0.26375000000007276,3.0399999999999636,37.56,39.84
1.6,-1.5587499999999181,-0.9937499999999773,-0.016249999999899956,-0.33999999999991815,3.7100000000000364,3.332499999999982,-0.17625000000001023,-1.337500000000091,-0.26375000000007276,3.0399999999999636,37.54,39.82
1.7,-1.4337499999999181,-0.9937499999999773,-0.016249999999899956,-0.08999999999991815,3.5850000000000364,3.207499999999982,-0.17625000000001023,-1.212500000000091,-0.13875000000007276,3.0399999999999636,37.56,39.87
1.8,-1.4337499999999181,-0.9937499999999773,-0.016249999999899956,0.035000000000081855,3.4600000000000364,3.082499999999982,-0.17625000000001023,-0.962500000000091,-0.01375000000007276,3.0399999999999636,37.54,39.84
1.9,-1.3087499999999181,-0.8687499999999773,-0.016249999999899956,0.28500000000008185,3.4600000000000364,3.082499999999982,0.07374999999998977,-0.587500000000091,0.11124999999992724,3.0399999999999636,37.56,39.86
2.0,-1.1837499999999181,-0.8687499999999773,-0.016249999999899956,0.41000000000008185,3.3350000000000364,2.957499999999982,-0.05125000000001023,-0.46250000000009095,0.23624999999992724,3.1649999999999636,37.54,39.84
2.1,-1.0587499999999181,-0.7437499999999773,0.10875000000010004,0.5350000000000819,3.3350000000000364,2.832499999999982,0.07374999999998977,-0.33750000000009095,0.23624999999992724,3.0399999999999636,37.57,39.83
2.2,-0.9337499999999181,-0.7437499999999773,0.10875000000010004,0.7850000000000819,3.2100000000000364,2.832499999999982,-0.05125000000001023,-0.08750000000009095,0.36124999999992724,3.0399999999999636,37.54,39.77
2.3,-0.8087499999999181,-0.7437499999999773,0.10875000000010004,0.7850000000000819,3.0850000000000364,2.707499999999982,-0.17625000000001023,0.03749999999990905,0.36124999999992724,3.0399999999999636,37.56,39.77
2.4,-0.8087499999999181,-0.7437499999999773,0.10875000000010004,1.0350000000000819,2.9600000000000364,2.582499999999982,0.07374999999998977,0.28749999999990905,0.48624999999992724,3.0399999999999636,37.57,39.84
2.5,-0.6837499999999181,-0.6187499999999773,0.10875000000010004,1.0350000000000819,2.8350000000000364,2.457499999999982,0.07374999999998977,0.41249999999990905,0.6112499999999272,3.0399999999999636,37.57,39.77
2.6,-0.5587499999999181,-0.6187499999999773,0.10875000000010004,1.1600000000000819,2.7100000000000364,2.332499999999982,0.07374999999998977,0.537499999999909,0.6112499999999272,3.0399999999999636,37.57,39.77
2.7,-0.5587499999999181,-0.49374999999997726,0.10875000000010004,1.2850000000000819,2.7100000000000364,2.332499999999982,-0.05125000000001023,0.662499999999909,0.7362499999999272,2.9149999999999636,37.57,39.81
2.8,-0.43374999999991815,-0.49374999999997726,0.10875000000010004,1.4100000000000819,2.5850000000000364,2.207499999999982,-0.05125000000001023,0.787499999999909,0.7362499999999272,2.9149999999999636,37.56,39.75
2.9,-0.43374999999991815,-0.49374999999997726,0.10875000000010004,1.5350000000000819,2.4600000000000364,2.082499999999982,-0.05125000000001023,0.912499999999909,0.8612499999999272,2.9149999999999636,37.56,39.72
3.0,-0.30874999999991815,-0.49374999999997726,0.10875000000010004,1.6600000000000819,2.2100000000000364,1.9574999999999818,-0.05125000000001023,1.037499999999909,0.8612499999999272,2.7899999999999636,37.56,39.77
3.1,-0.18374999999991815,-0.49374999999997726,0.10875000000010004,1.6600000000000819,2.2100000000000364,1.8324999999999818,-0.17625000000001023,1.162499999999909,0.9862499999999272,2.7899999999999636,37.54,39.69
3.2,-0.18374999999991815,-0.49374999999997726,0.10875000000010004,1.7850000000000819,2.0850000000000364,1.7074999999999818,-0.17625000000001023,1.287499999999909,0.9862499999999272,2.7899999999999636,37.56,39.72
3.3,-0.18374999999991815,-0.36874999999997726,0.10875000000010004,1.7850000000000819,1.9600000000000364,1.5824999999999818,-0.05125000000001023,1.287499999999909,0.9862499999999272,2.6649999999999636,37.57,39.75
3.4,-0.058749999999918145,-0.36874999999997726,0.10875000000010004,1.9100000000000819,1.8350000000000364,1.4574999999999818,-0.05125000000001023,1.412499999999909,1.1112499999999272,2.6649999999999636,37.54,39.69
3.5,0.06625000000008185,-0.36874999999997726,0.10875000000010004,1.9100000000000819,1.7100000000000364,1.3324999999999818,0.07374999999998977,1.537499999999909,1.1112499999999272,2.5399999999999636,37.57,39.68
3.6,0.06625000000008185,-0.24374999999997726,0.10875000000010004,2.035000000000082,1.5850000000000364,1.2074999999999818,0.07374999999998977,1.662499999999909,1.1112499999999272,2.4149999999999636,37.57,39.7
3.7,0.06625000000008185,-0.24374999999997726,0.10875000000010004,2.035000000000082,1.5850000000000364,1.2074999999999818,0.07374999999998977,1.662499999999909,1.1112499999999272,2.4149999999999636,37.54,39.66
3.8,0.19125000000008185,-0.24374999999997726,0.10875000000010004,2.035000000000082,1.3350000000000364,0.9574999999999818,0.07374999999998977,1.662499999999909,1.1112499999999272,2.2899999999999636,37.56,39.68
3.9,0.31625000000008185,-0.24374999999997726,0.10875000000010004,2.035000000000082,1.2100000000000364,0.9574999999999818,0.19874999999998977,1.787499999999909,1.2362499999999272,2.1649999999999636,37.56,39.62
4.0,0.31625000000008185,-0.24374999999997726,0.10875000000010004,2.035000000000082,1.2100000000000364,0.8324999999999818,0.19874999999998977,1.787499999999909,1.2362499999999272,2.1649999999999636,37.56,39.65
4.1,0.31625000000008185,-0.11874999999997726,0.10875000000010004,2.035000000000082,0.9600000000000364,0.7074999999999818,0.07374999999998977,1.787499999999909,1.2362499999999272,2.0399999999999636,37.56,39.64
4.2,0.44125000000008185,-0.11874999999997726,0.10875000000010004,2.035000000000082,0.9600000000000364,0.5824999999999818,0.07374999999998977,1.912499999999909,1.2362499999999272,1.9149999999999636,37.57,39.62
4.3,0.44125000000008185,-0.11874999999997726,0.10875000000010004,2.035000000000082,0.7100000000000364,0.4574999999999818,0.07374999999998977,1.912499999999909,1.2362499999999272,1.9149999999999636,37.54,39.6
4.4,0.44125000000008185,0.006250000000022737,0.10875000000010004,2.035000000000082,0.7100000000000364,0.3324999999999818,0.19874999999998977,1.912499999999909,1.2362499999999272,1.7899999999999636,37.56,39.6
4.5,0.44125000000008185,0.006250000000022737,0.10875000000010004,2.160000000000082,0.4600000000000364,0.2074999999999818,0.07374999999998977,1.912499999999909,1.2362499999999272,1.6649999999999636,37.56,39.62
4.6,0.5662500000000819,0.006250000000022737,0.10875000000010004,2.035000000000082,0.4600000000000364,0.08249999999998181,0.19874999999998977,1.912499999999909,1.2362499999999272,1.5399999999999636,37.58,39.59
4.7,0.5662500000000819,0.006250000000022737,0.10875000000010004,2.035000000000082,0.3350000000000364,-0.04250000000001819,0.19874999999998977,1.912499999999909,1.2362499999999272,1.4149999999999636,37.56,39.59
4.8,0.6912500000000819,0.13125000000002274,0.10875000000010004,2.035000000000082,0.21000000000003638,-0.1675000000000182,0.07374999999998977,1.912499999999909,1.2362499999999272,1.2899999999999636,37.58,39.59
4.9,0.6912500000000819,0.13125000000002274,0.10875000000010004,2.035000000000082,0.08500000000003638,-0.1675000000000182,0.07374999999998977,1.912499999999909,1.2362499999999272,1.1649999999999636,37.58,39.58
5.0,0.6912500000000819,0.13125000000002274,0.10875000000010004,2.035000000000082,-0.03999999999996362,-0.2925000000000182,0.07374999999998977,1.912499999999909,1.1112499999999272,1.0399999999999636,37.57,39.52
5.1,0.6912500000000819,0.13125000000002274,0.10875000000010004,1.9100000000000819,-0.16499999999996362,-0.4175000000000182,0.07374999999998977,1.912499999999909,1.1112499999999272,1.0399999999999636,37.54,39.59
5.2,0.8162500000000819,0.13125000000002274,0.10875000000010004,1.9100000000000819,-0.2899999999999636,-0.5425000000000182,0.19874999999998977,1.912499999999909,1.1112499999999272,0.9149999999999636,37.56,39.55
5.3,0.8162500000000819,0.13125000000002274,0.10875000000010004,1.7850000000000819,-0.4149999999999636,-0.5425000000000182,0.07374999999998977,1.912499999999909,1.1112499999999272,0.6649999999999636,37.57,39.53
5.4,0.8162500000000819,0.25625000000002274,0.10875000000010004,1.7850000000000819,-0.5399999999999636,-0.6675000000000182,0.44874999999998977,1.912499999999909,1.1112499999999272,0.5399999999999636,37.57,39.52
5.5,0.8162500000000819,0.38125000000002274,0.10875000000010004,1.7850000000000819,-0.6649999999999636,-0.7925000000000182,0.19874999999998977,1.912499999999909,1.1112499999999272,0.5399999999999636,37.57,39.55
5.6,0.8162500000000819,0.25625000000002274,0.10875000000010004,1.6600000000000819,-0.7899999999999636,-0.7925000000000182,0.19874999999998977,1.912499999999909,0.9862499999999272,0.4149999999999636,37.57,39.5
5.7,0.9412500000000819,0.38125000000002274,0.10875000000010004,1.6600000000000819,-0.9149999999999636,-0.9175000000000182,0.07374999999998977,1.912499999999909,0.9862499999999272,0.16499999999996362,37.57,39.49
5.8,0.9412500000000819,0.25625000000002274,0.10875000000010004,1.5350000000000819,-0.9149999999999636,-1.0425000000000182,0.07374999999998977,1.787499999999909,0.9862499999999272,0.16499999999996362,37.56,39.47
5.9,0.9412500000000819,0.38125000000002274,-0.016249999999899956,1.5350000000000819,-1.0399999999999636,-1.1675000000000182,0.32374999999998977,1.787499999999909,0.8612499999999272,-0.08500000000003638,37.57,39.49
6.0,0.9412500000000819,0.38125000000002274,-0.016249999999899956,1.5350000000000819,-1.1649999999999636,-1.1675000000000182,0.32374999999998977,1.787499999999909,0.8612499999999272,-0.21000000000003638,37.57,39.44
6.1,0.9412500000000819,0.38125000000002274,-0.016249999999899956,1.4100000000000819,-1.2899999999999636,-1.2925000000000182,0.19874999999998977,1.662499999999909,0.7362499999999272,-0.4600000000000364,37.56,39.44
6.2,0.9412500000000819,0.38125000000002274,0.10875000000010004,1.2850000000000819,-1.4149999999999636,-1.4175000000000182,-0.05125000000001023,1.537499999999909,0.7362499999999272,-0.5850000000000364,37.56,39.49
6.3,1.0662500000000819,0.5062500000000227,0.10875000000010004,1.1600000000000819,-1.5399999999999636,-1.4175000000000182,0.19874999999998977,1.537499999999909,0.7362499999999272,-0.7100000000000364,37.57,39.43
6.4,1.0662500000000819,0.5062500000000227,-0.016249999999899956,1.1600000000000819,-1.6649999999999636,-1.5425000000000182,-0.05125000000001023,1.412499999999909,0.6112499999999272,-0.8350000000000364,37.57,39.46
6.5,1.0662500000000819,0.5062500000000227,0.10875000000010004,1.0350000000000819,-1.7899999999999636,-1.5425000000000182,0.19874999999998977,1.412499999999909,0.6112499999999272,-0.9600000000000364,37.56,39.41
6.6,1.0662500000000819,0.5062500000000227,-0.016249999999899956,0.9100000000000819,-1.7899999999999636,-1.6675000000000182,0.32374999999998977,1.412499999999909,0.48624999999992724,-1.0850000000000364,37.57,39.44
6.7,1.0662500000000819,0.5062500000000227,-0.016249999999899956,0.7850000000000819,-1.9149999999999636,-1.7925000000000182,0.32374999999998977,1.287499999999909,0.48624999999992724,-1.2100000000000364,37.57,39.44
6.8,1.0662500000000819,0.6312500000000227,-0.016249999999899956,0.6600000000000819,-2.0399999999999636,-1.9175000000000182,0.07374999999998977,1.287499999999909,0.48624999999992724,-1.3350000000000364,37.57,39.44
6.9,1.0662500000000819,0.6312500000000227,-0.016249999999899956,0.6600000000000819,-2.1649999999999636,-1.9175000000000182,0.19874999999998977,1.162499999999909,0.36124999999992724,-1.4600000000000364,37.56,39.46
7.0,1.0662500000000819,0.6312500000000227,-0.016249999999899956,0.5350000000000819,-2.2899999999999636,-2.042500000000018,0.32374999999998977,1.037499999999909,0.23624999999992724,-1.7100000000000364,37.58,39.4
7.1,1.0662500000000819,0.6312500000000227,-0.016249999999899956,0.41000000000008185,-2.4149999999999636,-2.042500000000018,0.07374999999998977,1.037499999999909,0.23624999999992724,-1.8350000000000364,37.57,39.39
7.2,1.1912500000000819,0.7562500000000227,-0.016249999999899956,0.28500000000008185,-2.5399999999999636,-2.167500000000018,0.07374999999998977,0.912499999999909,0.11124999999992724,-2.0850000000000364,37.57,39.44
7.3,1.0662500000000819,0.6312500000000227,0.10875000000010004,0.16000000000008185,-2.5399999999999636,-2.292500000000018,0.19874999999998977,0.912499999999909,0.11124999999992724,-2.0850000000000364,37.57,39.41
7.4,1.0662500000000819,0.7562500000000227,0.10875000000010004,0.035000000000081855,-2.6649999999999636,-2.292500000000018,0.32374999999998977,0.787499999999909,-0.01375000000007276,-2.3350000000000364,37.53,39.34
7.5,1.0662500000000819,0.6312500000000227,-0.016249999999899956,-0.08999999999991815,-2.7899999999999636,-2.417500000000018,0.19874999999998977,0.662499999999909,-0.01375000000007276,-2.4600000000000364,37.57,39.36
7.6,1.1912500000000819,0.7562500000000227,-0.016249999999899956,-0.21499999999991815,-2.9149999999999636,-2.542500000000018,0.07374999999998977,0.537499999999909,-0.13875000000007276,-2.5850000000000364,37.56,39.36
7.7,1.0662500000000819,0.7562500000000227,-0.016249999999899956,-0.33999999999991815,-2.9149999999999636,-2.542500000000018,0.19874999999998977,0.537499999999909,-0.26375000000007276,-2.8350000000000364,37.57,39.4
7.8,1.1912500000000819,0.7562500000000227,-0.016249999999899956,-0.46499999999991815,-3.0399999999999636,-2.667500000000018,0.07374999999998977,0.41249999999990905,-0.26375000000007276,-2.9600000000000364,37.58,39.36
7.9,1.0662500000000819,0.7562500000000227,-0.016249999999899956,-0.5899999999999181,-3.1649999999999636,-2.792500000000018,0.07374999999998977,0.28749999999990905,-0.38875000000007276,-3.0850000000000364,37.56,39.37
8.0,1.1912500000000819,0.8812500000000227,-0.016249999999899956,-0.7149999999999181,-3.2899999999999636,-2.917500000000018,0.07374999999998977,0.28749999999990905,-0.38875000000007276,-3.3350000000000364,37.57,39.34
8.1,1.0662500000000819,0.8812500000000227,-0.016249999999899956,-0.8399999999999181,-3.4149999999999636,-2.917500000000018,0.32374999999998977,0.16249999999990905,-0.5137500000000728,-3.4600000000000364,37.57,39.3
8.2,1.0662500000000819,0.8812500000000227,-0.016249999999899956,-0.9649999999999181,-3.4149999999999636,-3.042500000000018,0.07374999999998977,0.03749999999990905,-0.6387500000000728,-3.5850000000000364,37.57,39.32
8.3,1.0662500000000819,1.0062500000000227,-0.016249999999899956,-1.2149999999999181,-3.5399999999999636,-3.042500000000018,0.19874999999998977,-0.08750000000009095,-0.6387500000000728,-3.8350000000000364,37.56,39.34
8.4,1.0662500000000819,0.8812500000000227,-0.016249999999899956,-1.3399999999999181,-3.6649999999999636,-3.167500000000018,-0.05125000000001023,-0.21250000000009095,-0.7637500000000728,-3.9600000000000364,37.58,39.28
8.5,0.9412500000000819,0.8812500000000227,-0.016249999999899956,-1.4649999999999181,-3.7899999999999636,-3.167500000000018,-0.05125000000001023,-0.21250000000009095,-0.7637500000000728,-4.085000000000036,37.54,39.29
8.6,1.0662500000000819,1.0062500000000227,-0.016249999999899956,-1.5899999999999181,-3.9149999999999636,-3.292500000000018,-0.17625000000001023,-0.33750000000009095,-0.8887500000000728,-4.335000000000036,37.58,39.27
8.7,1.0662500000000819,1.0062500000000227,-0.016249999999899956,-1.7149999999999181,-4.039999999999964,-3.417500000000018,0.07374999999998977,-0.46250000000009095,-0.8887500000000728,-4.460000000000036,37.57,39.3
8.8,0.9412500000000819,1.0062500000000227,-0.016249999999899956,-1.9649999999999181,-4.039999999999964,-3.417500000000018,-0.05125000000001023,-0.587500000000091,-1.0137500000000728,-4.585000000000036,37.58,39.22
8.9,0.9412500000000819,1.0062500000000227,-0.016249999999899956,-1.9649999999999181,-4.164999999999964,-3.542500000000018,-0.05125000000001023,-0.712500000000091,-1.1387500000000728,-4.710000000000036,37.6,39.27
9.0,0.9412500000000819,1.0062500000000227,-0.016249999999899956,-2.214999999999918,-4.289999999999964,-3.542500000000018,-0.05125000000001023,-0.837500000000091,-1.1387500000000728,-4.960000000000036,37.57,39.27
9.1,0.9412500000000819,1.0062500000000227,-0.016249999999899956,-2.339999999999918,-4.414999999999964,-3.667500000000018,-0.05125000000001023,-0.837500000000091,-1.3887500000000728,-5.085000000000036,37.58,39.3
9.2,0.9412500000000819,1.1312500000000227,0.10875000000010004,-2.464999999999918,-4.539999999999964,-3.792500000000018,-0.05125000000001023,-0.962500000000091,-1.3887500000000728,-5.335000000000036,37.58,39.25
9.3,0.9412500000000819,1.0062500000000227,-0.016249999999899956,-2.589999999999918,-4.539999999999964,-3.792500000000018,-0.05125000000001023,-1.087500000000091,-1.5137500000000728,-5.460000000000036,37.58,39.25
